# Gnuplot File : velocities of 1 particle(s) Monitored
# 1st Column : time, others : particle(s) number 0 
0.01	0.0471268 -0.393181 4.73362	
0.02	-0.0196432 -0.365689 4.82503	
0.03	-0.0567585 -0.347159 4.83283	
0.04	-0.0932198 -0.33831 4.93563	
0.05	-0.114504 -0.335735 4.997	
0.06	-0.127131 -0.332677 5.0046	
0.07	-0.13984 -0.330322 5.04484	
0.08	-0.151625 -0.32745 5.12066	
0.09	-0.158439 -0.328653 5.16585	
0.1	-0.161821 -0.329316 5.17649	
0.11	-0.164 -0.334841 5.19567	
0.12	-0.165409 -0.338873 5.23697	
0.13	-0.165428 -0.338803 5.26125	
0.14	-0.164149 -0.345757 5.2597	
0.15	-0.164214 -0.336103 5.10674	
0.16	-0.158023 -0.34516 5.13789	
0.17	-0.154434 -0.354951 5.26141	
0.18	-0.150798 -0.365432 5.27008	
0.19	-0.147696 -0.367188 5.29009	
0.2	-0.145321 -0.369646 5.28337	
0.21	-0.144058 -0.374486 5.32363	
0.22	-0.142724 -0.382098 5.4017	
0.23	-0.140234 -0.385443 5.41174	
0.24	-0.137423 -0.387367 5.40008	
0.25	-0.134692 -0.389138 5.40615	
0.26	-0.132827 -0.389451 5.44062	
0.27	-0.128013 -0.377635 5.22286	
0.28	-0.122953 -0.393453 5.42123	
0.29	-0.11887 -0.390984 5.35029	
0.3	-0.124337 -0.687354 5.48664	
0.31	1.26693 -1.18655 4.66882	
0.32	-3.1626 -1.43228 13.0007	
0.33	5.81584 -2.31183 6.99226	
0.34	0.0124533 -2.72036 18.0277	
0.35	0.00131132 -2.63873 17.3665	
0.36	1.09474 -2.72743 15.9384	
0.37	1.41774 -2.70323 15.0084	
0.38	1.34317 -2.62697 14.423	
0.39	1.27897 -2.54728 13.8683	
0.4	1.20313 -2.48048 13.3135	
0.41	0.580877 -2.41057 13.4607	
0.42	-0.55342 -2.45103 15.3528	
0.43	-0.714079 -2.57215 14.6427	
0.44	-0.835728 -2.64398 13.9518	
0.45	-0.870415 -2.61814 13.3514	
0.46	-0.824613 -2.49918 12.8218	
0.47	-0.776307 -2.3815 12.3233	
0.48	-0.765779 -2.30683 11.8009	
0.49	-0.817698 -2.29672 11.2013	
0.5	-0.882478 -2.29857 10.5854	
0.51	-0.959021 -2.31551 9.97535	
0.52	-1.05245 -2.35988 9.39824	
0.53	-1.06829 -2.32067 8.91787	
0.54	-1.06421 -2.26667 8.49988	
0.55	-1.06079 -2.20919 8.06721	
0.56	-1.06982 -2.16699 7.63557	
0.57	-1.09928 -2.1566 7.2343	
0.58	-1.10703 -2.12581 6.87855	
0.59	-1.10105 -2.07869 6.53684	
0.6	-1.0617 -1.99712 6.24643	
0.61	-1.01802 -1.9109 5.96633	
0.62	-0.977749 -1.83225 5.70638	
0.63	-0.961179 -1.7903 5.47854	
0.64	-0.947119 -1.75394 5.26656	
0.65	-0.921541 -1.7045 5.06919	
0.66	-0.894375 -1.65006 4.86185	
0.67	-0.872676 -1.60133 4.65154	
0.68	-0.858258 -1.56292 4.44896	
0.69	-0.826418 -1.5043 4.26342	
0.7	-0.799759 -1.45167 4.07756	
0.71	-0.772027 -1.40253 3.91931	
0.72	-0.749361 -1.3615 3.77167	
0.73	-0.724855 -1.31793 3.62678	
0.74	-0.696632 -1.26896 3.48262	
0.75	-0.672907 -1.22449 3.33471	
0.76	-0.649598 -1.18145 3.1941	
0.77	-0.629987 -1.14287 3.05442	
0.78	-0.605414 -1.09932 2.92513	
0.79	-0.587286 -1.06289 2.79194	
0.8	-0.562999 -1.02066 2.67259	
0.81	-0.533273 -0.97203 2.55931	
0.82	-0.509534 -0.931397 2.44912	
0.83	-0.491724 -0.898451 2.34077	
0.84	-0.475715 -0.868506 2.23774	
0.85	-0.464836 -0.845175 2.13628	
0.86	-0.451974 -0.81975 2.03939	
0.87	-0.435858 -0.790619 1.94728	
0.88	-0.417912 -0.759526 1.85926	
0.89	-0.400977 -0.729895 1.77375	
0.9	-0.383842 -0.701225 1.69603	
0.91	-0.371688 -0.678164 1.61547	
0.92	-0.360475 -0.655564 1.53278	
0.93	-0.345969 -0.629404 1.45543	
0.94	-0.334056 -0.606895 1.38084	
0.95	-0.324095 -0.587658 1.31119	
0.96	-0.315516 -0.570543 1.24447	
0.97	-0.305734 -0.553346 1.18647	
0.98	-0.29137 -0.530292 1.1306	
0.99	-0.278163 -0.508707 1.07576	
1	-0.269188 -0.492 1.01883	
1.01	-0.260178 -0.475255 0.963131	
1.02	-0.251968 -0.459533 0.908447	
1.03	-0.243171 -0.44337 0.856484	
1.04	-0.234787 -0.427927 0.806459	
1.05	-0.224988 -0.411108 0.759821	
1.06	-0.215776 -0.394869 0.713244	
1.07	-0.206692 -0.379328 0.670211	
1.08	-0.199582 -0.366123 0.626845	
1.09	-0.194064 -0.354691 0.582819	
1.1	-0.188493 -0.343484 0.541075	
1.11	-0.181957 -0.331327 0.501718	
1.12	-0.175755 -0.319661 0.463405	
1.13	-0.170176 -0.308999 0.426774	
1.14	-0.163963 -0.297602 0.391351	
1.15	-0.158718 -0.287523 0.356874	
1.16	-0.153141 -0.277357 0.32479	
1.17	-0.14765 -0.267336 0.29352	
1.18	-0.142904 -0.258211 0.262484	
1.19	-0.137604 -0.24861 0.23329	
1.2	-0.132885 -0.239837 0.205001	
1.21	-0.1281 -0.231157 0.178163	
1.22	-0.123905 -0.223363 0.152419	
1.23	-0.119649 -0.215613 0.127811	
1.24	-0.115002 -0.207526 0.104576	
1.25	-0.111 -0.200136 0.0810992	
1.26	-0.106807 -0.1929 0.0600709	
1.27	-0.103464 -0.186731 0.0392566	
1.28	-0.0994969 -0.179766 0.0190073	
1.29	-0.0960934 -0.17348 -0.00112243	
1.3	-0.0924387 -0.166989 -0.0202353	
1.31	-0.0891795 -0.161182 -0.0381465	
1.32	-0.085633 -0.155001 -0.0556643	
1.33	-0.174702 -5.86878 14.0333	
1.34	0.294023 -7.07859 16.7342	
1.35	1.86108 -10.878 26.1246	
1.36	1.78681 -10.5118 25.1352	
1.37	2.20324 -11.5562 27.7404	
1.38	2.17398 -11.6794 28.1395	
1.39	2.04373 -12.3242 29.6509	
1.4	1.95232 -11.9533 28.5006	
1.41	1.83983 -11.7026 27.313	
1.42	1.72408 -11.4899 26.1411	
1.43	-6.97103 -8.80198 24.7456	
1.44	-4.11688 -9.74149 24.4218	
1.45	-3.95952 -9.36843 23.4721	
1.46	-1.02025 -0.965178 0.773894	
1.47	-4.75995 0.70683 0.983251	
1.48	-2.51463 -3.9169 0.333423	
1.49	-2.66562 -3.08209 -0.384187	
1.5	2.90733 -3.97973 0.165669	
1.51	1.80704 -3.00228 -0.772182	
1.52	-17.5311 3.71744 2.73482	
1.53	-15.1556 3.42417 2.65911	
1.54	-11.248 2.98108 2.86058	
1.55	-9.43323 3.24404 2.63263	
1.56	-8.06502 3.49217 2.34839	
1.57	-7.82758 3.57356 2.18307	
1.58	3.38265 -1.33943 -2.21798	
1.59	0.983903 -0.0380652 -2.2628	
1.6	-7.88472 -0.652001 -1.99726	
1.61	-6.66795 -1.15457 -2.36605	
1.62	4.21962 7.19936 10.582	
1.63	-3.51874 11.7345 -1.03918	
1.64	-2.5361 10.4835 -1.45845	
1.65	3.05351 4.79533 -4.01842	
1.66	3.00317 4.42486 -4.13578	
1.67	2.74458 4.2808 -4.08913	
1.68	2.55416 4.13513 -4.02442	
1.69	2.35046 3.99665 -3.98702	
1.7	2.67027 3.30319 -4.33172	
1.71	2.51942 3.00487 -4.47168	
1.72	2.05505 2.93856 -4.48513	
1.73	2.21717 1.98504 -5.32053	
1.74	9.71967 6.24173 27.4561	
1.75	10.1986 6.9407 29.1705	
1.76	12.2027 7.71902 27.4029	
1.77	13.2088 8.08018 26.0184	
1.78	12.2924 7.56011 25.3398	
1.79	10.3688 6.37551 23.2969	
1.8	9.56545 5.85048 21.925	
1.81	8.96802 5.44935 20.7524	
1.82	7.741 4.70006 19.427	
1.83	7.49055 4.54097 18.68	
1.84	1.83605 0.509778 3.41506	
1.85	0.116115 -0.565442 2.18954	
1.86	0.0713866 -0.501869 2.12009	
1.87	0.675444 -0.252367 3.7629	
1.88	2.51211 -1.42221 0.0853728	
1.89	4.44264 -1.90961 3.84439	
1.9	5.16578 -2.17073 4.66901	
1.91	5.94395 -1.78023 5.82131	
1.92	4.94674 -0.520772 5.89367	
1.93	4.89802 -0.529227 5.67957	
1.94	6.94354 -0.485913 5.09751	
1.95	4.83155 1.66565 5.97071	
1.96	-2.85874 7.96906 11.7635	
1.97	3.599 1.19348 5.15622	
1.98	5.22447 -3.83892 -1.06165	
1.99	-1.57223 -5.5189 5.5901	
2	-1.131 -5.09299 3.97622	
2.01	-1.633 -5.1454 3.71551	
2.02	-0.367901 -8.6554 0.363556	
2.03	13.6305 -17.9623 6.37353	
2.04	22.6108 -11.1596 9.91716	
2.05	13.8151 -9.79179 16.3663	
2.06	5.52873 9.35786 -0.29683	
2.07	11.0635 -21.0822 2.42078	
2.08	0.504596 -10.4452 0.98196	
2.09	8.42058 -17.046 -0.845077	
2.1	4.48157 -0.352242 4.09911	
2.11	-2.87297 8.82262 -3.19288	
2.12	-4.91762 30.2064 -2.55958	
2.13	-3.79384 27.1436 4.04387	
2.14	-3.78663 26.3159 3.92634	
2.15	-3.61729 25.3967 3.72418	
2.16	-3.54481 24.4165 3.64103	
2.17	-3.46778 23.4623 3.55859	
2.18	-3.45927 22.5474 3.53212	
2.19	-3.66191 21.6073 3.70464	
2.2	-3.85368 20.2936 4.02384	
2.21	-3.24258 18.1456 4.00514	
2.22	-0.567565 13.1343 6.88637	
2.23	-1.325 12.0062 7.3504	
2.24	-1.0704 8.70683 8.12486	
2.25	-0.821628 5.7391 8.62258	
2.26	-0.755586 2.48896 9.44688	
2.27	-0.976625 -0.39494 10.457	
2.28	-1.32535 -2.56459 11.1051	
2.29	-1.24916 -3.68198 11.114	
2.3	-1.27491 -4.09205 10.9749	
2.31	-1.27372 -4.34329 10.758	
2.32	-1.12042 -4.32239 10.2854	
2.33	-34.7037 12.779 6.28594	
2.34	-22.2155 6.16562 8.34822	
2.35	-21.5091 5.70951 8.01168	
2.36	-10.2413 8.77347 0.716996	
2.37	-9.90058 8.50453 0.662169	
2.38	-9.58002 8.04269 0.635364	
2.39	20.6329 -2.86468 4.8068	
2.4	8.95851 0.448161 1.49773	
2.41	13.7821 2.6097 -0.784064	
2.42	24.9886 -12.053 -13.2332	
2.43	14.3265 -38.9141 6.08873	
2.44	14.9791 -36.3635 5.58656	
2.45	14.0661 -35.3492 5.60592	
2.46	13.3299 -34.235 5.52377	
2.47	12.7955 -33.045 5.34126	
2.48	12.2987 -31.8709 5.14871	
2.49	11.8508 -30.7011 4.93805	
2.5	11.4232 -29.7573 4.80478	
2.51	9.76747 -29.8412 5.47555	
2.52	8.48778 -29.4367 5.82869	
2.53	7.90124 -28.5055 5.74377	
2.54	7.35283 -27.5617 5.63838	
2.55	6.80221 -26.612 5.52863	
2.56	6.39247 -25.5729 5.33456	
2.57	5.97784 -24.5673 5.15249	
2.58	5.66125 -23.5235 4.92043	
2.59	5.28048 -22.5362 4.72923	
2.6	4.97671 -21.4728 4.48053	
2.61	4.60856 -20.42 4.25512	
2.62	4.23581 -19.4749 4.07083	
2.63	3.99597 -18.5237 3.83778	
2.64	3.75656 -17.6442 3.63038	
2.65	3.37558 -16.8188 3.48911	
2.66	2.88488 -16.2034 3.46391	
2.67	2.60952 -15.5045 3.33284	
2.68	2.41352 -14.7366 3.1468	
2.69	2.31994 -13.9297 2.90992	
2.7	2.0471 -13.3 2.79975	
2.71	1.75364 -12.6962 2.70493	
2.72	1.53879 -12.1698 2.61244	
2.73	1.40929 -11.4961 2.43298	
2.74	1.29873 -10.8351 2.25074	
2.75	1.1279 -10.1833 2.09078	
2.76	0.980415 -9.62792 1.95911	
2.77	0.910197 -9.0598 1.79552	
2.78	0.835374 -8.50559 1.63766	
2.79	0.719615 -7.98502 1.5053	
2.8	0.645594 -7.38638 1.32767	
2.81	0.558195 -6.69381 1.11702	
2.82	0.443114 -5.95082 0.895006	
2.83	0.370481 -5.24873 0.673701	
2.84	0.369484 -4.76098 0.510639	
2.85	0.326052 -4.4262 0.420061	
2.86	0.345215 -4.08797 0.306402	
2.87	0.357002 -3.73084 0.187015	
2.88	0.351533 -3.41129 0.0871026	
2.89	0.390915 -3.11917 -0.0179227	
2.9	0.429363 -2.76831 -0.146168	
2.91	0.434262 -2.455 -0.249438	
2.92	-1.03428 -2.4688 1.61327	
2.93	-4.7757 -9.13633 22.9966	
2.94	-4.67802 -9.91892 24.7844	
2.95	-4.96219 -15.6264 42.0892	
2.96	-4.99744 -15.3065 40.1103	
2.97	12.4813 16.775 6.50432	
2.98	15.5065 20.5277 0.475051	
2.99	15.2914 16.7611 -0.599235	
3	12.2746 -2.00241 -9.80011	
3.01	11.188 -2.13171 -9.13805	
3.02	8.91393 -3.15115 -6.94312	
3.03	-13.3694 1.27174 -0.570086	
3.04	-4.00879 -3.24361 -4.59405	
3.05	-2.41257 4.02484 -7.36155	
3.06	-2.56622 4.10748 -6.09501	
3.07	1.87726 15.2129 -12.5589	
3.08	1.6917 14.4808 -12.3771	
3.09	-0.123199 17.2032 -8.76939	
3.1	-4.39826 22.1051 -10.7852	
3.11	-6.73807 25.3558 -2.17214	
3.12	-20.0026 23.9741 -2.25669	
3.13	-20.2794 26.4083 -0.262898	
3.14	0.679481 29.895 -7.56722	
3.15	0.844915 26.786 -15.1702	
3.16	10.5835 33.2702 -21.6426	
3.17	-34.3519 83.5725 -7.33121	
3.18	-16.9855 89.9003 -26.8635	
3.19	-13.5685 63.0623 -20.8675	
3.2	15.1353 -16.6805 -10.4346	
3.21	5.87377 -19.3515 -12.2703	
3.22	4.1756 14.4899 0.837639	
3.23	3.81926 13.7023 -0.419647	
3.24	0.788822 13.8457 -5.29187	
3.25	0.754605 13.3598 -5.1092	
3.26	0.706534 12.8864 -4.89139	
3.27	0.721623 12.5232 -4.41419	
3.28	0.87808 13.1097 -2.05285	
3.29	0.632279 11.3034 -5.27599	
3.3	-1.71129 9.81492 -9.44459	
3.31	-1.86021 9.80502 -9.07725	
3.32	-4.15914 9.51103 -10.3568	
3.33	-6.35987 8.5614 -4.54394	
3.34	-0.140138 10.4686 -6.00194	
3.35	-3.77169 7.36414 -6.70328	
3.36	0.139266 8.51093 -5.63941	
3.37	13.1736 6.16483 27.0249	
3.38	1.33574 0.915107 4.91501	
3.39	1.29147 0.885883 4.721	
3.4	1.23114 0.842681 4.52364	
3.41	-2.84345 0.960746 2.71741	
3.42	-2.60871 0.702288 2.1702	
3.43	-2.50203 0.677738 2.0725	
3.44	-2.40241 0.654656 1.98573	
3.45	-2.0977 0.665706 2.06098	
3.46	-1.31633 0.739685 2.3737	
3.47	2.18576 1.55344 -4.99535	
3.48	7.02561 7.16436 1.54772	
3.49	-9.78433 3.84436 -1.47201	
3.5	5.29568 -13.3046 -8.2758	
3.51	3.22888 -13.6607 -11.7566	
3.52	0.544135 2.44457 15.7349	
3.53	-0.263138 -4.51687 -2.02856	
3.54	-0.275391 -4.29388 -1.93382	
3.55	0.348888 -4.77196 -2.60264	
3.56	-2.1431 -6.80861 -3.31677	
3.57	-2.12182 -6.59576 -3.19405	
3.58	-2.11139 -6.3978 -3.0763	
3.59	-2.09847 -6.20428 -2.95972	
3.6	-2.07976 -6.01477 -2.85299	
3.61	-2.0477 -5.82271 -2.75171	
3.62	-2.03542 -5.64988 -2.65103	
3.63	-2.00842 -5.47322 -2.55602	
3.64	-1.9832 -5.30377 -2.46547	
3.65	-1.9823 -5.15425 -2.36748	
3.66	-2.19836 -4.90997 -2.70277	
3.67	-1.17494 -2.92783 4.72963	
3.68	-1.1369 -2.82554 4.54152	
3.69	-1.10651 -2.73274 4.36348	
3.7	-1.18016 -2.65149 4.07706	
3.71	-1.17091 -2.58656 3.92823	
3.72	-1.1519 -2.5157 3.77695	
3.73	-1.1118 -2.42613 3.62119	
3.74	-1.07712 -2.34332 3.47364	
3.75	-1.04798 -2.26733 3.33418	
3.76	-1.0218 -2.19656 3.19942	
3.77	-1.01474 -2.14462 3.08091	
3.78	-1.92656 -2.34428 4.58582	
3.79	-1.85329 -2.25292 4.39078	
3.8	-1.78481 -2.17311 4.20958	
3.81	-1.71786 -2.08826 4.03111	
3.82	-1.65396 -2.01231 3.86174	
3.83	-1.59317 -1.93743 3.7001	
3.84	-1.5352 -1.87039 3.54681	
3.85	-1.47772 -1.81048 3.3961	
3.86	-1.42684 -1.75561 3.26233	
3.87	-1.37189 -1.68128 3.11492	
3.88	-1.31989 -1.60629 2.97456	
3.89	-1.27102 -1.54712 2.84481	
3.9	-1.22355 -1.48171 2.71725	
3.91	-1.17428 -1.37769 2.57785	
3.92	-1.1261 -1.27383 2.4411	
3.93	-1.08824 -1.18013 2.33135	
3.94	-1.05943 -1.09555 2.2453	
3.95	-1.01227 -0.986961 2.11009	
3.96	-0.986634 -0.933816 2.03781	
3.97	-0.983569 -0.912892 2.02649	
3.98	-0.957708 -0.842377 1.95029	
3.99	-0.928206 -0.808712 1.87238	
4	-0.902113 -0.784016 1.80447	
4.01	-0.88753 -0.781703 1.7688	
4.02	-0.858476 -0.781904 1.69852	
4.03	-0.806571 -0.710179 1.55891	
4.04	-0.76294 -0.648202 1.44123	
4.05	-0.74631 -0.639553 1.39935	
4.06	-0.766623 -0.709286 1.46222	
4.07	-0.734587 -0.643314 1.37188	
4.08	-0.701558 -0.558186 1.27542	
4.09	-0.669053 -0.466463 1.17895	
4.1	-0.641638 -0.403704 1.10042	
4.11	-0.61713 -0.383667 1.03721	
4.12	-0.594107 -0.368424 0.978526	
4.13	-0.572554 -0.355111 0.923775	
4.14	-0.551782 -0.342277 0.871008	
4.15	-0.531798 -0.329321 0.820124	
4.16	-0.512438 -0.318542 0.771172	
4.17	-0.493055 -0.305793 0.721778	
4.18	-0.474797 -0.29341 0.675181	
4.19	-0.45729 -0.282319 0.630655	
4.2	-0.440771 -0.272877 0.58884	
4.21	-0.424778 -0.263006 0.548214	
4.22	-0.409366 -0.25349 0.509062	
4.23	-0.394446 -0.24363 0.471038	
4.24	-0.380134 -0.234813 0.434684	
4.25	-0.366401 -0.226955 0.39992	
4.26	-0.353047 -0.218124 0.365884	
4.27	-0.340236 -0.210228 0.333344	
4.28	-0.32789 -0.202617 0.301983	
