# Gnuplot File : positions of 1 particle(s) Monitored
# 1st Column : time, others : particle(s) number 0 
0.01	7.62733 14.2201 1.83704	
0.02	7.5962 14.2077 1.88996	
0.03	7.61476 14.1904 1.90106	
0.04	7.61305 14.1908 1.9021	
0.05	7.6167 14.1904 1.90176	
0.06	7.6168 14.1919 1.90043	
0.07	7.61662 14.1935 1.89997	
0.08	7.61948 14.1933 1.89746	
0.09	7.6178 14.1958 1.89982	
0.1	7.62035 14.1956 1.89611	
0.11	7.61929 14.1975 1.89733	
0.12	7.62102 14.1978 1.89418	
0.13	7.61994 14.1997 1.89635	
0.14	7.62019 14.2007 1.89524	
0.15	7.62044 14.2016 1.89439	
0.16	7.61997 14.2031 1.89499	
0.17	7.62097 14.2037 1.89459	
0.18	7.62262 14.2017 1.89259	
0.19	7.62283 14.2025 1.8917	
0.2	7.62304 14.2034 1.89138	
0.21	7.62325 14.2043 1.89123	
0.22	8.08492 13.9911 1.43026	
0.23	8.49367 13.8711 1.15666	
0.24	8.82269 13.7991 0.999565	
0.25	9.14188 13.8659 1.03974	
0.26	9.71138 13.8273 0.879841	
0.27	10.0714 13.8253 0.835111	
0.28	10.4835 13.705 0.708649	
0.29	10.977 13.739 0.900757	
0.3	11.4037 13.8263 1.13994	
0.31	11.2395 13.8653 1.06222	
0.32	11.2905 13.8826 1.08614	
0.33	11.3579 13.8846 1.13432	
0.34	11.324 13.8858 1.11152	
0.35	11.3373 13.8892 1.11494	
0.36	11.3457 13.8914 1.11563	
0.37	11.3386 13.8897 1.11057	
0.38	11.3469 13.8849 1.11865	
0.39	11.3185 13.874 1.10536	
0.4	11.0415 13.4257 1.12742	
0.41	10.756 12.2898 1.56301	
0.42	10.6918 11.7814 1.91018	
0.43	10.8049 11.1457 1.84021	
0.44	10.929 10.8988 2.00172	
0.45	11.1643 11.0865 2.54395	
0.46	11.4261 11.2765 3.25735	
0.47	11.669 11.3031 3.94251	
0.48	11.8145 11.0754 4.18519	
0.49	11.927 10.7632 4.23732	
0.5	12.078 10.5661 4.28285	
0.51	12.2482 10.196 4.35601	
0.52	12.4029 9.71295 4.41781	
0.53	12.4947 9.25808 4.46558	
0.54	12.6172 9.05511 4.50049	
0.55	12.7699 8.9818 4.52025	
0.56	12.8579 8.93658 4.54751	
0.57	12.9411 8.90548 4.51965	
0.58	13.0097 8.9072 4.53081	
0.59	13.0913 8.88943 4.54277	
0.6	13.1964 8.85617 4.56364	
0.61	13.2726 8.77183 4.5973	
0.62	13.3304 8.68779 4.63178	
0.63	13.3785 8.54862 4.5644	
0.64	13.4311 8.34184 4.38434	
0.65	13.4882 8.26382 4.33659	
0.66	13.5315 8.25625 4.36827	
0.67	13.5132 8.19555 4.42279	
0.68	13.4638 8.13039 4.44241	
0.69	13.3744 8.07255 4.42492	
0.7	13.2184 8.05323 4.42558	
0.71	12.9259 8.02935 4.42501	
0.72	12.5743 8.05326 4.4208	
0.73	12.4156 8.10721 4.43928	
0.74	12.3363 8.10632 4.46617	
0.75	12.2763 8.11198 4.48046	
0.76	12.3073 8.07662 4.50804	
0.77	12.3336 8.00956 4.55001	
0.78	12.3684 7.97149 4.58543	
0.79	12.3867 7.91866 4.54044	
0.8	12.4021 7.90084 4.50511	
0.81	12.4029 7.88026 4.46111	
0.82	12.4049 7.86477 4.42687	
0.83	12.4082 7.8488 4.40131	
0.84	12.4091 7.8083 4.33505	
0.85	12.411 7.74434 4.22575	
0.86	12.4185 7.67463 4.10678	
0.87	12.4212 7.62391 4.00787	
0.88	12.4348 7.60403 3.96382	
0.89	12.4484 7.58431 3.91971	
0.9	12.4507 7.56618 3.89668	
0.91	12.4514 7.56395 3.87508	
0.92	12.451 7.57144 3.85346	
0.93	12.4544 7.5964 3.84545	
0.94	12.462 7.63072 3.83762	
0.95	12.4636 7.65402 3.82675	
0.96	12.4756 7.68084 3.80145	
0.97	12.4893 7.72319 3.78161	
0.98	12.5177 7.75987 3.74005	
0.99	12.5242 7.77377 3.67463	
1	12.5401 7.79315 3.61499	
1.01	12.5528 7.81327 3.55951	
1.02	12.561 7.82931 3.49727	
1.03	12.5625 7.86399 3.43112	
1.04	12.565 7.91654 3.3459	
1.05	12.5644 7.96062 3.24555	
1.06	12.5646 8.02998 3.16026	
1.07	12.5664 8.11149 3.08757	
1.08	12.5688 8.17243 3.04627	
1.09	12.5697 8.20768 3.02209	
1.1	12.5706 8.23925 3.01195	
1.11	12.5891 8.2779 3.00645	
1.12	12.6038 8.29376 2.99457	
1.13	12.6051 8.32433 2.9903	
1.14	12.6241 8.3715 2.98421	
1.15	12.6428 8.40709 2.97966	
1.16	12.6555 8.4461 2.97437	
1.17	12.6737 8.47751 2.97037	
1.18	12.7158 8.52213 2.96526	
1.19	12.7638 8.57079 2.95994	
1.2	12.7938 8.62209 2.95391	
1.21	12.8238 8.69385 2.9458	
1.22	12.8541 8.72951 2.93714	
1.23	12.8664 8.74276 2.93067	
1.24	12.872 8.75653 2.92638	
1.25	12.8964 8.8007 2.91948	
1.26	12.937 8.84981 2.89912	
1.27	12.9658 8.89449 2.87391	
1.28	13.006 8.94026 2.84882	
1.29	13.0447 8.98964 2.81534	
1.3	13.0805 9.04439 2.79317	
1.31	13.1314 9.12337 2.7663	
1.32	13.1511 9.18636 2.72121	
1.33	13.1569 9.22545 2.66642	
1.34	13.157 9.2607 2.61201	
1.35	13.1554 9.32539 2.57611	
1.36	13.1545 9.37621 2.52086	
1.37	13.1539 9.43188 2.44012	
1.38	13.1557 9.50585 2.38115	
1.39	13.1925 9.591 2.30315	
1.4	13.2284 9.63836 2.28872	
1.41	13.2168 9.69423 2.19646	
1.42	13.2468 9.74188 2.23257	
1.43	13.2566 9.80687 2.18625	
1.44	13.2609 9.84508 2.15879	
1.45	13.2557 9.87904 2.10791	
1.46	13.2444 9.93824 2.05162	
1.47	13.2158 9.94541 1.92569	
1.48	13.17 9.95849 1.83387	
1.49	13.0894 9.9942 1.69119	
1.5	12.9092 10.1907 1.31614	
1.51	12.6115 9.90167 1.04316	
1.52	12.643 9.96748 0.728552	
1.53	12.519 10.0386 0.567886	
1.54	12.3008 9.71081 -0.140431	
1.55	11.8749 9.72925 -0.319266	
1.56	10.5237 9.4807 -1.03685	
1.57	10.2613 9.50007 -0.985738	
1.58	10.079 9.42652 -1.2053	
1.59	9.84742 9.41031 -1.18273	
1.6	9.69195 9.34991 -1.18917	
1.61	9.4752 9.33243 -1.14765	
1.62	9.23906 9.32967 -1.05187	
1.63	8.98623 9.34722 -0.918715	
1.64	8.63819 9.4031 -0.699727	
1.65	8.32702 9.41585 -0.428594	
1.66	8.20614 9.403 -0.292806	
1.67	8.14436 9.38003 -0.25456	
1.68	8.07461 9.39294 -0.187511	
1.69	7.99827 9.39776 -0.146528	
1.7	7.85263 9.29483 -0.21229	
1.71	8.35227 9.05208 -0.406594	
1.72	7.55663 9.88996 0.416248	
1.73	7.73841 9.4774 0.47723	
1.74	7.11209 9.56279 1.52127	
1.75	8.20684 9.63724 3.77117	
1.76	8.36055 9.62545 4.25337	
1.77	8.37879 9.33403 4.47446	
1.78	8.41253 9.21101 5.04267	
1.79	8.43761 9.04457 5.74192	
1.8	8.44491 8.95991 5.89894	
1.81	8.44118 8.91857 5.94411	
1.82	8.40759 8.88639 6.05018	
1.83	8.32518 8.81399 6.23007	
1.84	8.18913 8.7204 6.49969	
1.85	8.06656 8.58363 6.79912	
1.86	7.94214 8.39364 7.14538	
1.87	7.90331 8.18139 7.31158	
1.88	7.8221 7.9303 7.26996	
1.89	7.69459 7.62833 6.96064	
1.9	7.60699 7.28077 6.63227	
1.91	7.80879 6.91981 6.12313	
1.92	8.17231 6.61815 5.70828	
1.93	8.61697 6.35278 5.3384	
1.94	9.39386 6.231 4.96168	
1.95	10.1327 6.15402 4.81139	
1.96	10.5886 6.11996 5.11103	
1.97	11.1425 6.13654 5.34637	
1.98	11.532 6.05751 5.5225	
1.99	11.9034 5.96861 5.55671	
2	12.3692 5.82914 5.62223	
2.01	12.8246 5.70107 5.68046	
2.02	13.1904 5.63714 5.5359	
2.03	13.4447 5.52232 5.38949	
2.04	13.6577 5.45579 5.34217	
2.05	13.8527 5.4215 5.39933	
2.06	13.9431 5.35316 5.43001	
2.07	13.9679 5.24083 5.34116	
2.08	13.9428 5.19865 5.46703	
2.09	13.8106 5.08855 5.51352	
2.1	13.5523 4.80034 5.5527	
2.11	13.359 4.58467 5.54206	
2.12	13.2584 4.41996 5.44011	
2.13	13.2446 4.25853 5.31492	
2.14	13.2385 4.05267 5.17051	
2.15	13.2537 3.87533 5.0709	
2.16	13.2632 3.69071 5.04167	
2.17	13.2331 3.52425 5.0691	
2.18	13.1751 3.37229 5.06578	
2.19	13.1008 3.22928 5.02794	
2.2	12.9839 3.08238 4.94017	
2.21	12.8756 2.96142 4.80215	
2.22	12.823 2.84425 4.61038	
2.23	12.8223 2.80315 4.50784	
2.24	12.815 2.77836 4.44493	
2.25	12.8317 2.75968 4.39583	
2.26	12.8376 2.75451 4.36477	
2.27	12.8255 2.76548 4.3382	
2.28	12.8008 2.78651 4.28232	
2.29	12.7662 2.79576 4.19238	
2.3	12.7219 2.80231 4.08078	
2.31	12.6686 2.76745 3.92505	
2.32	12.6346 2.72105 3.79008	
2.33	12.5893 2.71562 3.72795	
2.34	12.5842 2.7347 3.66232	
2.35	12.5841 2.77204 3.58535	
2.36	12.5837 2.85226 3.51962	
2.37	12.6004 2.95892 3.46087	
2.38	12.622 3.05848 3.41652	
2.39	12.6541 3.15727 3.36381	
2.4	12.708 3.2211 3.33168	
2.41	12.7547 3.25079 3.32086	
2.42	12.8018 3.26693 3.31417	
2.43	12.8203 3.27389 3.30452	
2.44	12.8532 3.33526 3.24899	
2.45	12.8944 3.42952 3.12745	
2.46	12.9129 3.52945 3.01187	
2.47	12.9401 3.61442 2.88147	
2.48	12.9719 3.69671 2.75657	
2.49	13.0321 3.7872 2.64939	
2.5	13.1402 3.89887 2.5619	
2.51	13.2992 4.00683 2.48611	
2.52	13.4444 4.12369 2.43819	
2.53	13.5464 4.24183 2.39124	
2.54	13.5772 4.33798 2.40231	
2.55	13.598 4.43144 2.37295	
2.56	13.621 4.52334 2.32625	
2.57	13.653 4.58728 2.27863	
2.58	13.6662 4.61096 2.25852	
2.59	13.6335 4.57127 2.05429	
2.6	13.5358 4.50404 1.59818	
2.61	13.3397 4.41013 1.08742	
2.62	12.6963 4.11518 0.307306	
2.63	12.1669 3.95416 -0.115205	
2.64	11.7289 3.76044 -0.634249	
2.65	9.06037 2.91793 -0.528697	
2.66	9.20722 2.78326 -0.328883	
2.67	8.61953 2.77291 -0.251159	
2.68	8.59725 2.89577 -0.365911	
2.69	8.43652 2.8788 -0.312854	
2.7	8.23073 2.88831 -0.135043	
2.71	7.97675 2.92137 0.0432835	
2.72	7.57963 2.96947 0.558296	
2.73	7.37168 2.89736 0.967054	
2.74	7.20978 3.15116 2.4456	
2.75	7.40398 3.50127 3.44847	
2.76	7.85406 3.76759 4.01919	
2.77	8.00302 3.91452 4.20505	
2.78	8.14817 3.99665 4.33665	
2.79	8.13615 3.83044 4.6525	
2.8	8.41838 3.58911 4.79724	
2.81	8.36455 2.74583 5.54207	
2.82	8.26645 1.66507 6.42768	
2.83	8.24147 0.590635 7.2499	
2.84	8.4729 -0.373674 7.9058	
2.85	8.66994 -1.31554 8.70375	
2.86	8.86553 -2.13227 9.40998	
2.87	9.1145 -2.50142 9.32683	
2.88	9.16155 -2.49894 8.49293	
2.89	9.24874 -1.96673 6.9457	
2.9	9.1253 -1.21363 5.6104	
2.91	9.11813 -0.410289 4.87528	
2.92	9.15369 0.584412 4.96969	
2.93	9.19556 1.83703 4.93385	
2.94	9.14298 3.57341 4.14445	
2.95	9.20962 5.79224 3.09547	
2.96	9.23277 8.2615 2.42838	
2.97	9.14048 9.95386 2.18695	
2.98	9.03303 10.871 2.15818	
2.99	8.89983 11.5969 2.26007	
3	8.73247 12.0412 2.25082	
3.01	8.44324 12.62 2.12971	
3.02	8.33888 13.4926 1.60486	
3.03	8.01299 14.0181 1.6231	
3.04	8.00137 14.2151 1.52778	
3.05	7.94327 14.2321 1.51262	
3.06	8.04387 14.1778 1.38791	
3.07	8.22194 14.1412 1.22419	
3.08	8.38159 14.1388 1.16174	
3.09	8.75927 13.8487 1.04256	
3.1	8.80747 13.8596 1.01078	
3.11	8.81578 13.8523 1.00666	
3.12	8.81967 13.852 1.00233	
3.13	8.8168 13.8595 0.998527	
3.14	8.88967 13.8429 0.967052	
3.15	9.09918 13.803 0.892037	
3.16	9.14042 13.7957 0.878021	
3.17	9.19149 13.7866 0.862315	
3.18	9.20358 13.7837 0.857966	
3.19	9.19903 13.7839 0.857929	
3.2	9.21601 13.781 0.852128	
3.21	9.27624 13.7724 0.835626	
3.22	9.32277 13.7734 0.818457	
