# Gnuplot File : positions of 1 particle(s) Monitored
# 1st Column : time, others : particle(s) number 0 
0.01	9.84159 19.9303 3.16455	
0.02	9.83579 19.9253 3.14834	
0.03	9.83675 19.9254 3.14803	
0.04	9.83699 19.9251 3.14665	
0.05	9.83794 19.9256 3.14786	
0.06	9.83794 19.9252 3.14635	
0.07	9.83675 19.9254 3.14765	
0.08	9.83794 19.9256 3.14768	
0.09	9.83484 19.9243 3.14461	
0.1	9.83295 19.924 3.14446	
0.11	9.82965 19.9226 3.14116	
0.12	9.82347 19.9202 3.1357	
0.13	9.81947 19.9189 3.13338	
0.14	9.81654 19.9175 3.13018	
0.15	9.81781 19.9175 3.12928	
0.16	9.81599 19.9169 3.12855	
0.17	9.81577 19.9164 3.12692	
0.18	9.84269 19.1494 3.39952	
0.19	9.81985 18.7218 3.82343	
0.2	9.84117 18.6664 3.68286	
0.21	9.84759 18.3562 3.65395	
0.22	9.89791 17.9197 3.69488	
0.23	10.0567 17.6192 3.74354	
0.24	10.2156 17.3492 3.7164	
0.25	10.4147 17.087 3.69123	
0.26	10.7196 16.9302 3.68909	
0.27	11.0348 16.8125 3.76093	
0.28	11.4277 16.8101 3.82551	
0.29	11.7464 16.8667 3.89063	
0.3	11.9403 16.9406 3.98126	
0.31	12.0731 17.0043 4.05614	
0.32	12.1659 17.0794 4.12306	
0.33	12.2419 17.1164 4.21494	
0.34	12.2767 17.095 4.26713	
0.35	12.3207 16.9692 4.27297	
0.36	12.3748 16.8592 4.33235	
0.37	12.4453 16.6957 4.38732	
0.38	12.4952 16.5475 4.4192	
0.39	12.5403 16.3947 4.4116	
0.4	12.5716 16.2435 4.41568	
0.41	12.6001 16.1274 4.4166	
0.42	12.6322 15.9859 4.42089	
0.43	12.6498 15.8839 4.42247	
0.44	12.6568 15.7505 4.42356	
0.45	12.6624 15.6177 4.42818	
0.46	12.6643 15.4794 4.43692	
0.47	12.6759 15.3145 4.44504	
0.48	12.6991 15.148 4.4558	
0.49	12.7188 15.0199 4.46944	
0.5	12.7228 14.8823 4.48266	
0.51	12.7253 14.7553 4.49556	
0.52	12.7231 14.6157 4.50861	
0.53	12.7202 14.4707 4.52347	
0.54	12.709 14.3292 4.53686	
0.55	12.6718 14.1772 4.55321	
0.56	12.5979 14.0025 4.57512	
0.57	12.3967 13.7947 4.60055	
0.58	12.1963 13.7038 4.61794	
0.59	12.0042 13.6755 4.62274	
0.6	11.7199 13.6422 4.6235	
0.61	11.396 13.6182 4.6289	
0.62	11.1228 13.6138 4.62692	
0.63	10.8664 13.6368 4.63336	
0.64	10.6347 13.6575 4.63556	
0.65	10.4367 13.6739 4.65542	
0.66	10.282 13.6775 4.66365	
0.67	10.0738 13.6728 4.6656	
0.68	9.85578 13.6708 4.66583	
0.69	9.62173 13.6727 4.66627	
0.7	9.35776 13.6838 4.66671	
0.71	9.10608 13.6946 4.66714	
0.72	8.83785 13.7046 4.66849	
0.73	8.56073 13.725 4.66979	
0.74	8.2782 13.7378 4.66691	
0.75	8.03533 13.7642 4.66963	
0.76	7.80927 13.7628 4.66986	
0.77	7.61406 13.7074 4.67151	
0.78	7.52385 13.6582 4.66565	
0.79	7.39444 13.5114 4.66214	
0.8	7.27001 13.2898 4.66253	
0.81	7.22623 13.1295 4.66356	
0.82	7.19566 12.9622 4.66548	
0.83	7.15966 12.79 4.70505	
0.84	7.1258 12.6211 4.75191	
0.85	7.1056 12.5054 4.77903	
0.86	7.08851 12.3802 4.81441	
0.87	7.08753 12.2968 4.84156	
0.88	7.07484 12.2233 4.84711	
0.89	7.06912 12.154 4.85183	
0.9	7.06401 12.0865 4.87301	
0.91	7.04802 11.9933 4.88731	
0.92	7.02864 11.9091 4.91826	
0.93	7.01477 11.8283 4.94727	
0.94	6.99937 11.7385 4.96969	
0.95	6.98027 11.6353 5.00194	
0.96	6.96323 11.5288 5.02607	
0.97	6.9425 11.4144 5.04679	
0.98	6.92406 11.3064 5.05516	
0.99	6.90661 11.2041 5.04985	
1	6.89273 11.1144 5.0453	
1.01	6.88084 11.0134 5.04616	
1.02	6.86421 10.907 5.05684	
1.03	6.84412 10.7968 5.08693	
1.04	6.84186 10.695 5.1284	
1.05	6.83843 10.6023 5.16474	
1.06	6.84473 10.5086 5.19992	
1.07	6.8635 10.4136 5.23811	
1.08	6.88453 10.3196 5.2783	
1.09	6.9013 10.2321 5.31559	
1.1	6.92355 10.1432 5.35353	
1.11	6.93218 10.0554 5.38846	
1.12	6.95516 9.96706 5.42753	
1.13	6.98632 9.88933 5.46909	
1.14	7.04188 9.80925 5.49861	
1.15	7.10916 9.74713 5.53058	
1.16	7.2165 9.70125 5.54427	
1.17	7.34199 9.67269 5.54644	
1.18	7.48434 9.64989 5.55004	
1.19	7.62901 9.63377 5.55277	
1.2	7.80181 9.61386 5.55131	
1.21	7.96924 9.5971 5.5511	
1.22	8.12541 9.58345 5.54914	
1.23	8.30905 9.57291 5.54537	
1.24	8.49448 9.56893 5.53799	
1.25	8.67345 9.58245 5.52573	
1.26	8.84639 9.59312 5.51428	
1.27	9.03179 9.60429 5.50311	
1.28	9.21562 9.62203 5.49016	
1.29	9.37774 9.63783 5.48079	
1.3	9.52813 9.65413 5.47049	
1.31	9.7066 9.66291 5.46511	
1.32	9.84527 9.67297 5.46016	
1.33	9.99639 9.68878 5.45338	
1.34	10.1473 9.71548 5.44142	
1.35	10.2757 9.71702 5.43659	
1.36	10.3997 9.72223 5.43784	
1.37	10.5136 9.73588 5.43193	
1.38	10.6547 9.77133 5.4183	
1.39	10.7829 9.7973 5.4083	
1.4	10.9201 9.81869 5.39637	
1.41	11.0286 9.82501 5.39329	
1.42	11.1233 9.83109 5.39045	
1.43	11.2379 9.83306 5.38892	
1.44	11.3453 9.83238 5.38066	
1.45	11.4471 9.82487 5.36996	
1.46	11.5485 9.81772 5.35892	
1.47	11.6429 9.80041 5.35209	
1.48	11.7464 9.78246 5.34047	
1.49	11.8205 9.76234 5.33033	
1.5	11.8931 9.74475 5.31182	
1.51	11.9442 9.72783 5.28611	
1.52	11.9833 9.68124 5.24859	
1.53	12.0206 9.63935 5.22252	
1.54	12.0586 9.59231 5.19711	
1.55	12.0851 9.55321 5.17555	
1.56	12.1107 9.5055 5.15111	
1.57	12.1463 9.44913 5.1261	
1.58	12.1567 9.39042 5.10483	
1.59	12.1698 9.34393 5.07329	
1.6	12.1762 9.29375 5.03772	
1.61	12.1775 9.26141 5.03438	
1.62	12.1814 9.21602 5.02197	
1.63	12.1888 9.17756 4.98759	
1.64	12.1934 9.13436 4.97443	
1.65	12.1979 9.09878 4.97121	
1.66	12.2058 9.07326 4.96957	
1.67	12.208 9.05195 4.9805	
1.68	12.232 9.03069 4.98263	
1.69	12.2942 9.04192 4.98004	
1.7	12.3221 9.05615 4.982	
1.71	12.3476 9.07142 4.98213	
1.72	12.3676 9.09337 4.97035	
1.73	12.3925 9.12146 4.96453	
1.74	12.4219 9.1706 4.94678	
1.75	12.4436 9.22958 4.89232	
1.76	12.4699 9.30248 4.82329	
1.77	12.4893 9.37853 4.71458	
1.78	12.4963 9.47843 4.59297	
1.79	12.4918 9.56986 4.49888	
1.8	12.4898 9.63347 4.40456	
1.81	12.4817 9.68822 4.33556	
1.82	12.4669 9.79091 4.22386	
1.83	12.4552 9.87376 4.13556	
1.84	12.4467 9.9417 4.06876	
1.85	12.4291 10.0057 3.99306	
1.86	12.4298 10.0515 3.92333	
1.87	12.4274 10.0686 3.88943	
1.88	12.426 10.0794 3.8535	
1.89	12.4197 10.1233 3.81525	
1.9	12.4267 10.1626 3.75644	
1.91	12.4356 10.1983 3.70325	
1.92	12.4319 10.2137 3.62753	
1.93	12.4314 10.2069 3.57048	
1.94	12.4321 10.202 3.51759	
1.95	12.4384 10.2074 3.43887	
1.96	12.4461 10.2025 3.36196	
1.97	12.4547 10.1911 3.30008	
1.98	12.4573 10.1738 3.23977	
1.99	12.459 10.1512 3.19974	
2	12.4641 10.1268 3.15062	
2.01	12.4666 10.1098 3.10889	
2.02	12.4676 10.0923 3.08592	
2.03	12.4732 10.0645 3.06489	
2.04	12.4747 10.0539 3.04552	
2.05	12.4811 10.0478 3.01921	
2.06	12.4956 10.0455 2.98071	
2.07	12.5025 10.0364 2.94245	
2.08	12.5149 10.0376 2.89806	
2.09	12.5201 10.03 2.88776	
2.1	12.524 10.0038 2.89468	
2.11	12.5286 9.97234 2.90084	
2.12	12.5354 9.92686 2.91742	
2.13	12.5398 9.88689 2.93383	
2.14	12.5551 9.83184 2.95282	
2.15	12.5618 9.78656 2.96992	
2.16	12.5764 9.73677 2.98759	
2.17	12.5995 9.67854 3.01045	
2.18	12.6453 9.62445 3.03498	
2.19	12.6659 9.55686 3.06491	
2.2	12.7014 9.4775 3.10361	
2.21	12.7282 9.38166 3.14889	
2.22	12.7498 9.30081 3.18902	
2.23	12.7781 9.22648 3.2279	
2.24	12.8141 9.1448 3.27438	
2.25	12.8407 9.07659 3.31395	
2.26	12.8713 8.99123 3.36769	
2.27	12.9014 8.90865 3.41182	
2.28	12.9127 8.84184 3.44395	
2.29	12.9305 8.78067 3.47273	
2.3	12.9428 8.71745 3.49675	
2.31	12.947 8.65183 3.51785	
2.32	12.9549 8.59561 3.52723	
2.33	12.9658 8.52679 3.52915	
2.34	12.9774 8.45478 3.53913	
2.35	12.9721 8.39009 3.54465	
2.36	12.9762 8.31611 3.55001	
2.37	12.9646 8.2392 3.55164	
2.38	12.9613 8.14931 3.55827	
2.39	12.9577 8.0695 3.56056	
2.4	12.9512 8.00713 3.56782	
2.41	12.9538 7.93933 3.56992	
2.42	12.9537 7.88511 3.58684	
2.43	12.9382 7.81798 3.6013	
2.44	12.9284 7.75748 3.61757	
2.45	12.9095 7.70228 3.64063	
2.46	12.8753 7.64961 3.65878	
2.47	12.8226 7.59227 3.66899	
2.48	12.7682 7.55553 3.67815	
2.49	12.6727 7.52155 3.67681	
2.5	12.5382 7.493 3.6741	
2.51	12.412 7.47334 3.67946	
2.52	12.2678 7.45651 3.68082	
2.53	12.114 7.44385 3.67836	
2.54	11.9664 7.43288 3.67581	
2.55	11.8295 7.42513 3.67861	
2.56	11.6752 7.4296 3.6681	
2.57	11.5269 7.43099 3.6605	
2.58	11.4076 7.42634 3.65807	
2.59	11.2429 7.41921 3.65601	
2.6	11.087 7.41379 3.65368	
2.61	10.9567 7.41558 3.6489	
2.62	10.7995 7.41682 3.64432	
2.63	10.6868 7.41757 3.6475	
2.64	10.5594 7.42631 3.63873	
2.65	10.4401 7.4324 3.63537	
2.66	10.337 7.43842 3.62926	
2.67	10.218 7.44528 3.62458	
2.68	10.0977 7.44332 3.6252	
2.69	9.96916 7.44663 3.62313	
2.7	9.84237 7.45048 3.61973	
2.71	9.71393 7.45121 3.62171	
2.72	9.57785 7.45715 3.61989	
2.73	9.44144 7.47265 3.61129	
2.74	9.32167 7.4836 3.60223	
2.75	9.20274 7.49064 3.59789	
2.76	9.06641 7.49479 3.59768	
2.77	8.94337 7.49695 3.58871	
2.78	8.8124 7.50088 3.58371	
2.79	8.68975 7.50627 3.58423	
2.8	8.5755 7.51428 3.57173	
2.81	8.46251 7.51891 3.56305	
2.82	8.3479 7.52181 3.5465	
2.83	8.24255 7.52572 3.53243	
2.84	8.15697 7.53588 3.50105	
2.85	8.08599 7.54263 3.45937	
2.86	8.00708 7.55297 3.40433	
2.87	7.93942 7.56557 3.33434	
2.88	7.89278 7.56339 3.2535	
2.89	7.86436 7.55168 3.17878	
2.9	7.8428 7.53413 3.10487	
2.91	7.83877 7.51428 3.02146	
2.92	7.83473 7.49167 2.91662	
2.93	7.84809 7.46544 2.82487	
2.94	7.85203 7.42346 2.75009	
2.95	7.83936 7.37748 2.66971	
2.96	7.83534 7.33724 2.59351	
2.97	7.86332 7.29135 2.53209	
2.98	7.8915 7.24679 2.48012	
2.99	7.90516 7.18788 2.47797	
3	7.90953 7.13031 2.46006	
3.01	7.90703 7.0136 2.44756	
3.02	7.90441 6.87666 2.47558	
3.03	7.89146 6.72835 2.51156	
3.04	7.86128 6.57469 2.50342	
3.05	7.85416 6.44539 2.47904	
3.06	7.85281 6.32339 2.48069	
3.07	7.84339 6.20851 2.48437	
3.08	7.86684 6.09376 2.50874	
3.09	7.87768 5.99469 2.53961	
3.1	7.87816 5.86918 2.61514	
3.11	7.86707 5.81066 2.6079	
3.12	7.85186 5.65067 2.66208	
3.13	7.83592 5.53337 2.72785	
3.14	7.82811 5.40372 2.81289	
3.15	7.83381 5.26787 2.89082	
3.16	7.81778 5.19552 2.93683	
3.17	7.802 5.13742 2.91576	
3.18	7.75423 5.10862 3.00699	
3.19	7.75318 5.09208 3.02745	
3.2	7.74936 5.09537 3.0195	
3.21	7.75756 5.09782 3.03109	
3.22	7.74451 5.05702 3.07292	
3.23	7.7389 4.81823 3.33481	
3.24	7.75722 4.62815 3.57678	
3.25	7.79168 4.56309 3.69671	
3.26	7.86056 4.55526 3.73246	
3.27	7.90953 4.53285 3.7852	
3.28	7.91453 4.53047 3.83706	
3.29	7.8837 4.58367 3.79488	
3.3	7.87578 4.74843 3.64222	
3.31	7.86064 5.01562 3.4166	
3.32	7.82924 5.31449 3.19287	
3.33	7.85354 5.60598 2.91964	
3.34	7.8187 5.63013 2.91729	
3.35	7.80964 5.84316 2.76783	
3.36	7.74345 5.91881 2.73677	
3.37	7.70735 6.08071 2.6517	
3.38	7.67291 6.17377 2.59029	
3.39	7.65245 6.22774 2.55228	
3.4	7.64164 6.29489 2.48705	
3.41	7.65662 6.33699 2.48114	
3.42	7.66464 6.41644 2.47831	
3.43	7.66771 6.52464 2.4576	
3.44	7.67496 6.60743 2.48292	
3.45	7.64145 6.61014 2.56479	
3.46	7.61974 6.56406 2.72842	
3.47	7.60691 6.43417 2.94488	
3.48	7.5876 6.25969 3.19154	
3.49	7.56277 6.04137 3.38918	
3.5	7.52935 5.79948 3.60061	
3.51	7.50776 5.57253 3.81445	
3.52	7.4942 5.34327 4.02078	
3.53	7.44555 5.12253 4.14478	
3.54	7.37863 4.92535 4.20129	
3.55	7.31016 4.70231 4.19777	
3.56	7.27389 4.46972 4.22804	
3.57	7.25057 4.24595 4.37363	
3.58	7.21664 4.02151 4.53282	
3.59	7.21637 3.82067 4.71513	
3.6	7.22386 3.63304 4.8396	
3.61	7.28808 3.49333 4.88243	
3.62	7.45123 3.43563 4.876	
3.63	7.72809 3.41506 4.86293	
3.64	8.06147 3.42388 4.81307	
3.65	8.45617 3.44218 4.75103	
3.66	8.87544 3.50347 4.64003	
3.67	9.18494 3.60876 4.48363	
3.68	9.47206 3.76512 4.29015	
3.69	9.66126 3.96238 4.07958	
3.7	9.84385 4.18905 3.84537	
3.71	10.0125 4.46295 3.59074	
3.72	10.1304 4.758 3.32461	
3.73	10.2528 5.05625 3.06926	
3.74	10.3452 5.39087 2.84333	
3.75	10.4145 5.71161 2.66229	
3.76	10.4874 6.04041 2.52477	
3.77	10.5812 6.39548 2.42569	
3.78	10.7057 6.75619 2.3224	
3.79	10.7902 7.14046 2.25716	
3.8	10.8367 7.49981 2.24158	
3.81	10.859 8.17442 2.24166	
3.82	10.8251 8.82524 2.31084	
3.83	10.8283 9.61026 2.43285	
3.84	10.8467 10.4137 2.52141	
3.85	10.7274 10.7885 2.54979	
3.86	10.7019 11.872 2.68461	
3.87	10.682 12.407 2.89925	
3.88	10.6529 13.0485 3.21288	
3.89	10.6189 13.7017 3.25536	
3.9	10.5822 14.384 3.22496	
3.91	10.5489 14.9453 3.20476	
3.92	10.4906 15.5583 3.215	
3.93	10.4317 16.244 3.27174	
3.94	10.3146 16.4774 3.27712	
3.95	10.2603 16.9008 3.35977	
3.96	10.2372 17.4914 3.53194	
3.97	10.2251 17.7947 3.59651	
3.98	10.2141 18.1958 3.67482	
3.99	10.2032 18.5989 3.77778	
4	10.1071 18.8761 3.75992	
4.01	10.0075 19.1846 3.64921	
4.02	9.94555 19.4833 3.465	
4.03	9.89457 19.7692 3.23055	
4.04	9.84295 19.9276 3.15226	
4.05	9.84414 19.9279 3.15297	
4.06	9.84773 19.9291 3.1554	
4.07	9.85979 19.9288 3.14825	
4.08	9.86759 19.9267 3.13735	
4.09	9.86389 19.9341 3.16707	
4.1	9.86479 19.934 3.16614	
4.11	9.86267 19.9379 3.18352	
4.12	9.86051 19.9399 3.1937	
4.13	9.85929 19.9407 3.198	
4.14	9.85931 19.9411 3.19946	
4.15	9.85933 19.9414 3.20092	
4.16	9.85934 19.9414 3.20093	
4.17	9.85936 19.9411 3.19948	
4.18	9.85936 19.9414 3.20093	
4.19	9.85937 19.9414 3.20094	
4.2	9.85937 19.9414 3.20094	
4.21	9.85937 19.9414 3.20094	
4.22	9.8606 19.9416 3.201	
4.23	9.85937 19.9414 3.20094	
4.24	9.85937 19.9414 3.20094	
4.25	9.85937 19.9414 3.20094	
4.26	9.86061 19.9412 3.19955	
4.27	9.85937 19.9414 3.20094	
4.28	9.8606 19.9416 3.201	
4.29	9.8606 19.9416 3.201	
4.3	9.85937 19.9414 3.20094	
4.31	9.85937 19.9414 3.20094	
4.32	9.8606 19.9416 3.201	
4.33	9.8606 19.9416 3.201	
4.34	9.85937 19.9414 3.20094	
4.35	9.85937 19.9411 3.19949	
4.36	9.85937 19.9414 3.20094	
4.37	9.85937 19.9414 3.20094	
4.38	9.85937 19.9411 3.19949	
4.39	9.85964 19.9411 3.19964	
4.4	9.85937 19.9414 3.20094	
4.41	9.85937 19.9411 3.19949	
4.42	9.85937 19.9414 3.20094	
