# Gnuplot File : positions of 1 particle(s) Monitored
# 1st Column : time, others : particle(s) number 0 
0.01	9.85799 19.9322 3.16363	
0.02	9.8592 19.9324 3.16343	
0.03	9.8592 19.9324 3.16324	
0.04	9.8592 19.9324 3.16309	
0.05	9.85894 19.9323 3.16282	
0.06	9.8592 19.9324 3.16291	
0.07	9.8592 19.9324 3.16286	
0.08	9.85894 19.9323 3.16265	
0.09	9.8592 19.9324 3.16279	
0.1	9.85399 19.9309 3.15943	
0.11	9.85185 19.9301 3.15725	
0.12	9.84818 19.9286 3.15335	
0.13	9.8583 19.5924 3.23422	
0.14	9.86513 18.8043 3.50979	
0.15	9.90237 18.7691 3.44154	
0.16	9.94642 18.4846 3.44986	
0.17	10.0106 18.2471 3.46701	
0.18	10.1195 17.9656 3.48744	
0.19	10.1827 17.7753 3.49211	
0.2	10.1975 17.5853 3.49298	
0.21	10.2193 17.3981 3.58545	
0.22	10.2676 17.2225 3.7216	
0.23	10.3451 17.1515 3.90972	
0.24	10.4778 17.1036 4.09658	
0.25	10.6402 17.1376 4.23494	
0.26	10.8654 17.1873 4.30651	
0.27	11.1659 17.2644 4.36342	
0.28	11.4725 17.2966 4.37888	
0.29	11.8197 17.3349 4.40487	
0.3	12.1624 17.4023 4.40559	
0.31	12.4165 17.4224 4.39406	
0.32	12.5743 17.3838 4.34463	
0.33	12.6364 17.2865 4.30795	
0.34	12.6576 17.2094 4.29055	
0.35	12.6787 17.1268 4.25115	
0.36	12.7041 17.0115 4.23186	
0.37	12.7338 16.8863 4.20225	
0.38	12.7669 16.7368 4.1908	
0.39	12.7991 16.608 4.18007	
0.4	12.8216 16.4845 4.17301	
0.41	12.8435 16.3905 4.16083	
0.42	12.8597 16.285 4.15153	
0.43	12.8786 16.1893 4.13927	
0.44	12.8629 16.0552 4.13349	
0.45	12.8595 15.9069 4.11611	
0.46	12.8725 15.784 4.1108	
0.47	12.8807 15.64 4.09956	
0.48	12.8968 15.5032 4.10119	
0.49	12.8934 15.3456 4.09512	
0.5	12.9035 15.2033 4.10378	
0.51	12.9146 15.0534 4.10879	
0.52	12.9124 14.8986 4.09919	
0.53	12.8884 14.7299 4.06969	
0.54	12.8555 14.5801 4.07401	
0.55	12.8115 14.475 4.08027	
0.56	12.7501 14.3828 4.08555	
0.57	12.6551 14.309 4.09495	
0.58	12.5125 14.2765 4.09785	
0.59	12.3169 14.2403 4.0977	
0.6	12.0745 14.2023 4.10393	
0.61	11.7855 14.1654 4.10338	
0.62	11.538 14.1393 4.10306	
0.63	11.3146 14.1144 4.10305	
0.64	11.0803 14.0919 4.10312	
0.65	10.83 14.072 4.10325	
0.66	10.5511 14.0552 4.10493	
0.67	10.3241 14.0564 4.10486	
0.68	10.1211 14.0562 4.10488	
0.69	9.91126 14.0587 4.10483	
0.7	9.74527 14.0635 4.10493	
0.71	9.56017 14.0708 4.10377	
0.72	9.38837 14.0811 4.10527	
0.73	9.25091 14.0862 4.10553	
0.74	9.10301 14.1031 4.1055	
0.75	8.96149 14.1157 4.10555	
0.76	8.86816 14.1401 4.10142	
0.77	8.76012 14.1638 4.09965	
0.78	8.65767 14.1723 4.10132	
0.79	8.46803 14.1835 4.10206	
0.8	8.21946 14.1564 4.10005	
0.81	8.01354 14.1352 4.10429	
0.82	7.822 14.0817 4.09647	
0.83	7.64093 14.0133 4.06414	
0.84	7.47855 13.8956 4.01344	
0.85	7.41663 13.8227 3.99653	
0.86	7.37991 13.7538 3.98443	
0.87	7.35709 13.694 3.97165	
0.88	7.33557 13.6421 3.97775	
0.89	7.32512 13.5903 3.97636	
0.9	7.30759 13.53 3.96562	
0.91	7.29222 13.4758 3.96853	
0.92	7.28475 13.4314 3.97081	
0.93	7.26907 13.3745 3.98124	
0.94	7.25154 13.3152 3.98702	
0.95	7.23389 13.2471 3.99783	
0.96	7.20668 13.168 4.0081	
0.97	7.19559 13.1132 4.01414	
0.98	7.18597 13.0588 4.02028	
0.99	7.18063 13.0034 4.02816	
1	7.17013 12.9437 4.03549	
1.01	7.15813 12.8753 4.04966	
1.02	7.14673 12.8104 4.05837	
1.03	7.13225 12.7341 4.06789	
1.04	7.12003 12.6659 4.08304	
1.05	7.10821 12.5988 4.10148	
1.06	7.0967 12.5413 4.11577	
1.07	7.08579 12.4793 4.13253	
1.08	7.07989 12.4093 4.14707	
1.09	7.06905 12.3491 4.1547	
1.1	7.07316 12.3004 4.16806	
1.11	7.06956 12.2454 4.17735	
1.12	7.07022 12.184 4.1883	
1.13	7.05924 12.112 4.20878	
1.14	7.05173 12.0319 4.22731	
1.15	7.04425 11.9515 4.24491	
1.16	7.04302 11.8699 4.26298	
1.17	7.04373 11.799 4.27911	
1.18	7.05128 11.73 4.30343	
1.19	7.0466 11.6638 4.31397	
1.2	7.06031 11.591 4.31695	
1.21	7.05708 11.5221 4.33439	
1.22	7.05864 11.4525 4.33939	
1.23	7.06237 11.3883 4.34304	
1.24	7.05761 11.3172 4.34143	
1.25	7.05141 11.2384 4.33493	
1.26	7.04076 11.1727 4.34389	
1.27	7.03018 11.1073 4.33876	
1.28	7.02346 11.0244 4.33606	
1.29	7.02012 10.962 4.34159	
1.3	7.00822 10.8792 4.34966	
1.31	6.99003 10.7764 4.36758	
1.32	6.98654 10.6694 4.37967	
1.33	6.96661 10.5431 4.39417	
1.34	6.94439 10.4058 4.39455	
1.35	6.93127 10.2779 4.40748	
1.36	6.93025 10.1468 4.43497	
1.37	6.95053 10.0501 4.45269	
1.38	7.01182 9.98537 4.46575	
1.39	7.12503 9.95196 4.47118	
1.4	7.26995 9.93098 4.47311	
1.41	7.43094 9.91392 4.47156	
1.42	7.60187 9.89791 4.46962	
1.43	7.78893 9.90141 4.45889	
1.44	7.99264 9.91029 4.4445	
1.45	8.20546 9.91141 4.43378	
1.46	8.42297 9.90937 4.42649	
1.47	8.60579 9.91738 4.41608	
1.48	8.83219 9.93209 4.41046	
1.49	9.03137 9.94902 4.39821	
1.5	9.22987 9.9588 4.39251	
1.51	9.44213 9.97993 4.382	
1.52	9.6857 10.0139 4.36766	
1.53	9.88018 10.0496 4.35301	
1.54	10.0723 10.082 4.34024	
1.55	10.2654 10.1267 4.32296	
1.56	10.4508 10.1729 4.30449	
1.57	10.6805 10.2442 4.27973	
1.58	10.8569 10.3 4.2617	
1.59	10.9922 10.3286 4.25086	
1.6	11.1109 10.3468 4.24463	
1.61	11.2297 10.3814 4.23353	
1.62	11.3298 10.4354 4.21477	
1.63	11.459 10.4823 4.19949	
1.64	11.5656 10.4974 4.19534	
1.65	11.6763 10.5087 4.19429	
1.66	11.7954 10.5216 4.19338	
1.67	11.8917 10.5377 4.19067	
1.68	12.0344 10.5653 4.18655	
1.69	12.1878 10.6151 4.17261	
1.7	12.3236 10.642 4.16218	
1.71	12.4286 10.6571 4.16143	
1.72	12.5036 10.6686 4.16198	
1.73	12.5722 10.6775 4.15745	
1.74	12.612 10.6814 4.15111	
1.75	12.643 10.6897 4.14474	
1.76	12.6797 10.6957 4.14504	
1.77	12.7043 10.6997 4.14523	
1.78	12.7339 10.7056 4.13221	
1.79	12.7615 10.7238 4.10571	
1.8	12.7802 10.743 4.06959	
1.81	12.794 10.753 4.02634	
1.82	12.8193 10.7642 3.9801	
1.83	12.8283 10.7602 3.93178	
1.84	12.831 10.7466 3.89172	
1.85	12.833 10.7351 3.85805	
1.86	12.8288 10.7196 3.81546	
1.87	12.8311 10.7067 3.75958	
1.88	12.8336 10.6921 3.7325	
1.89	12.836 10.678 3.7068	
1.9	12.8317 10.6652 3.67076	
1.91	12.8334 10.6535 3.63443	
1.92	12.8357 10.6416 3.59692	
1.93	12.8372 10.6312 3.56431	
1.94	12.8386 10.6231 3.53838	
1.95	12.84 10.6167 3.51776	
1.96	12.8419 10.6056 3.49993	
1.97	12.8367 10.5961 3.49108	
1.98	12.8407 10.5724 3.48682	
1.99	12.8355 10.554 3.48623	
2	12.8413 10.5289 3.47686	
2.01	12.8454 10.5031 3.48452	
2.02	12.8486 10.4768 3.49007	
2.03	12.854 10.4527 3.48449	
2.04	12.8643 10.4255 3.48352	
2.05	12.8697 10.3941 3.47211	
2.06	12.8746 10.3654 3.46974	
2.07	12.8744 10.3258 3.45344	
2.08	12.8837 10.271 3.4383	
2.09	12.8902 10.2349 3.42888	
2.1	12.899 10.185 3.41104	
2.11	12.9066 10.1403 3.3915	
2.12	12.9204 10.101 3.3665	
2.13	12.9339 10.0654 3.35458	
2.14	12.9423 10.0164 3.33837	
2.15	12.9487 9.97917 3.32402	
2.16	12.9619 9.94531 3.31647	
2.17	12.982 9.91175 3.30501	
2.18	12.9865 9.87655 3.29743	
2.19	12.9987 9.84939 3.29352	
2.2	13.0068 9.81105 3.29317	
2.21	13.0129 9.77771 3.29119	
2.22	13.0203 9.73481 3.2942	
2.23	13.027 9.69595 3.29271	
2.24	13.0358 9.64487 3.28592	
2.25	13.0383 9.58819 3.28255	
2.26	13.0487 9.51863 3.26736	
2.27	13.0622 9.45115 3.25788	
2.28	13.0726 9.39047 3.2532	
2.29	13.084 9.32395 3.24795	
2.3	13.094 9.25861 3.24582	
2.31	13.1082 9.18521 3.25324	
2.32	13.1198 9.11732 3.26032	
2.33	13.1344 9.03372 3.26882	
2.34	13.149 8.94835 3.28924	
2.35	13.1642 8.85917 3.31627	
2.36	13.1774 8.78204 3.34873	
2.37	13.1889 8.71624 3.36182	
2.38	13.2129 8.63163 3.37893	
2.39	13.2258 8.55663 3.39716	
2.4	13.2315 8.47815 3.40522	
2.41	13.2385 8.39358 3.40947	
2.42	13.2526 8.31242 3.42087	
2.43	13.2644 8.19705 3.42322	
2.44	13.2683 8.08113 3.42643	
2.45	13.2568 7.96087 3.43864	
2.46	13.2695 7.83812 3.44227	
2.47	13.2568 7.71904 3.45486	
2.48	13.2569 7.61774 3.46435	
2.49	13.255 7.53049 3.46546	
2.5	13.226 7.44609 3.44934	
2.51	13.2115 7.39317 3.42172	
2.52	13.1766 7.33564 3.41529	
2.53	13.1485 7.29337 3.40078	
2.54	13.1222 7.24242 3.39205	
2.55	13.1021 7.20198 3.40738	
2.56	13.0723 7.16114 3.42815	
2.57	13.0517 7.1131 3.45855	
2.58	13.0249 7.06016 3.49336	
2.59	12.9515 6.98275 3.54105	
2.6	12.8473 6.91078 3.58337	
2.61	12.7374 6.866 3.60878	
2.62	12.631 6.84495 3.61997	
2.63	12.5264 6.83259 3.62272	
2.64	12.4026 6.81793 3.62408	
2.65	12.2782 6.80841 3.62262	
2.66	12.1548 6.80424 3.61833	
2.67	11.9786 6.78592 3.61845	
2.68	11.8524 6.78265 3.61289	
2.69	11.7422 6.78692 3.60992	
2.7	11.6143 6.79022 3.60705	
2.71	11.5043 6.79566 3.60421	
2.72	11.3714 6.79606 3.60818	
2.73	11.2285 6.79964 3.6	
2.74	11.0956 6.80437 3.59053	
2.75	10.9742 6.80669 3.58519	
2.76	10.8419 6.80497 3.58679	
2.77	10.7256 6.80865 3.58156	
2.78	10.6189 6.81882 3.57884	
2.79	10.5193 6.83365 3.57215	
2.8	10.4472 6.85174 3.57603	
2.81	10.3587 6.87482 3.57857	
2.82	10.2707 6.8883 3.58136	
2.83	10.1976 6.91119 3.57876	
2.84	10.1342 6.93458 3.57611	
2.85	10.0899 6.95254 3.56916	
2.86	10.0445 6.97443 3.58387	
2.87	9.99243 7.00528 3.58906	
2.88	9.94047 7.03136 3.57011	
2.89	9.90486 7.06667 3.54579	
2.9	9.85316 7.09407 3.53234	
2.91	9.80939 7.11131 3.5189	
2.92	9.75757 7.11958 3.51088	
2.93	9.70587 7.13865 3.50424	
2.94	9.66908 7.1656 3.48708	
2.95	9.64992 7.19205 3.46845	
2.96	9.63072 7.21346 3.45112	
2.97	9.60373 7.2264 3.44065	
2.98	9.57506 7.23909 3.43025	
2.99	9.54131 7.25754 3.41834	
3	9.51444 7.28956 3.39872	
3.01	9.49711 7.32581 3.37503	
3.02	9.48018 7.36273 3.35295	
3.03	9.45545 7.40981 3.32978	
3.04	9.44494 7.4543 3.29869	
3.05	9.4272 7.52102 3.27377	
3.06	9.4105 7.55944 3.26019	
3.07	9.4017 7.59401 3.25457	
3.08	9.39292 7.62866 3.24905	
3.09	9.35881 7.66386 3.24367	
3.1	9.32451 7.67352 3.24016	
3.11	9.26829 7.68122 3.24581	
3.12	9.18455 7.68257 3.24331	
3.13	9.11624 7.69821 3.23515	
3.14	9.05513 7.70876 3.22931	
3.15	8.9962 7.72389 3.21899	
3.16	8.92724 7.72558 3.21755	
3.17	8.84957 7.72791 3.2165	
3.18	8.75713 7.73208 3.21647	
3.19	8.67257 7.73612 3.21645	
3.2	8.59274 7.73473 3.21929	
3.21	8.52418 7.72901 3.22453	
3.22	8.46216 7.71905 3.23537	
3.23	8.39487 7.71811 3.23647	
3.24	8.3319 7.71723 3.2412	
3.25	8.28805 7.71937 3.2378	
3.26	8.2442 7.72212 3.23835	
3.27	8.19363 7.72583 3.2386	
3.28	8.14089 7.71997 3.24404	
3.29	8.08132 7.70758 3.23586	
3.3	8.02957 7.69817 3.21974	
3.31	7.98635 7.69243 3.19728	
3.32	7.94101 7.68346 3.16148	
3.33	7.90292 7.65061 3.13542	
3.34	7.85625 7.60961 3.11456	
3.35	7.8166 7.56366 3.0709	
3.36	7.78369 7.50609 3.02172	
3.37	7.75235 7.46537 2.97704	
3.38	7.72914 7.40998 2.93866	
3.39	7.71305 7.34563 2.91105	
3.4	7.69631 7.27462 2.90111	
3.41	7.68766 7.20194 2.91308	
3.42	7.66927 7.11378 2.94705	
3.43	7.65974 7.01354 2.99387	
3.44	7.6477 6.90456 3.04731	
3.45	7.62937 6.80207 3.09866	
3.46	7.62723 6.69465 3.15921	
3.47	7.64138 6.59096 3.2196	
3.48	7.64742 6.47486 3.27596	
3.49	7.63681 6.36027 3.3227	
3.5	7.62508 6.23583 3.35636	
3.51	7.65129 6.14826 3.37288	
3.52	7.67049 6.07457 3.37522	
3.53	7.69154 6.00122 3.37235	
3.54	7.70933 5.91867 3.37418	
3.55	7.71164 5.83021 3.38083	
3.56	7.70337 5.73856 3.38614	
3.57	7.69609 5.64002 3.39846	
3.58	7.68147 5.5734 3.40907	
3.59	7.68548 5.51603 3.43646	
3.6	7.67807 5.43887 3.46239	
3.61	7.67126 5.35797 3.49047	
3.62	7.66512 5.28282 3.52254	
3.63	7.65021 5.20974 3.56059	
3.64	7.64089 5.11524 3.60467	
3.65	7.64216 5.02314 3.66822	
3.66	7.65203 4.93554 3.74038	
3.67	7.6523 4.83096 3.82668	
3.68	7.65015 4.71221 3.9236	
3.69	7.64789 4.58872 4.03619	
3.7	7.6391 4.48206 4.12835	
3.71	7.63947 4.38032 4.21575	
3.72	7.64925 4.28422 4.27757	
3.73	7.65936 4.17919 4.32769	
3.74	7.67874 4.09052 4.3408	
3.75	7.7031 4.02477 4.35107	
3.76	7.7194 3.97494 4.34737	
3.77	7.72404 3.90467 4.33091	
3.78	7.72746 3.81652 4.30222	
3.79	7.74924 3.74791 4.3204	
3.8	7.7976 3.74302 4.33257	
3.81	7.8663 3.71791 4.36962	
3.82	7.93561 3.70497 4.38788	
3.83	8.03282 3.68559 4.40742	
3.84	8.15077 3.6717 4.41856	
3.85	8.26057 3.66525 4.41991	
3.86	8.38894 3.65739 4.41979	
3.87	8.53898 3.64947 4.41911	
3.88	8.70908 3.64113 4.41674	
3.89	8.89098 3.63427 4.41507	
3.9	9.08055 3.63733 4.40076	
3.91	9.29181 3.66441 4.3578	
3.92	9.47637 3.71042 4.29314	
3.93	9.63025 3.77545 4.21131	
3.94	9.7727 3.85729 4.10588	
3.95	9.9154 3.96089 3.9751	
3.96	10.0262 4.07219 3.83431	
3.97	10.1262 4.21238 3.6591	
3.98	10.2133 4.38322 3.45846	
3.99	10.2795 4.55677 3.2518	
4	10.3077 4.76726 3.01376	
4.01	10.3239 4.98274 2.78118	
4.02	10.3385 5.17934 2.57401	
4.03	10.3331 5.42691 2.32628	
4.04	10.3375 5.67218 2.0898	
4.05	10.3323 5.90097 1.88475	
4.06	10.3203 6.12155 1.72669	
4.07	10.308 6.36133 1.55951	
4.08	10.302 6.63634 1.34995	
4.09	10.3148 6.87592 1.17175	
4.1	10.3112 7.10911 1.03954	
4.11	10.3219 7.36125 0.91881	
4.12	10.3573 7.6144 0.788609	
4.13	10.3631 7.83309 0.711023	
4.14	10.3596 8.05012 0.672648	
4.15	10.3706 8.28509 0.6169	
4.16	10.3812 8.53206 0.534743	
4.17	10.3695 8.77639 0.493713	
4.18	10.3698 9.04713 0.490938	
4.19	10.3848 9.31373 0.497615	
4.2	10.3792 9.54599 0.500875	
4.21	10.3582 9.80413 0.539794	
4.22	10.3486 10.1157 0.602177	
4.23	10.3389 10.4297 0.649739	
4.24	10.3206 10.764 0.710219	
4.25	10.3164 11.1223 0.790334	
4.26	10.3032 11.4968 0.85176	
4.27	10.2918 11.862 0.907889	
4.28	10.275 12.2218 0.98659	
4.29	10.2619 12.6097 1.09182	
4.3	10.248 13.0208 1.22169	
4.31	10.2378 13.361 1.3492	
4.32	10.2269 13.6771 1.48903	
4.33	10.2135 13.9481 1.64197	
4.34	10.2051 14.1751 1.7671	
4.35	10.1985 14.3995 1.8975	
4.36	10.1876 14.6451 2.04162	
4.37	10.1688 14.9052 2.21652	
4.38	10.1617 15.1068 2.37158	
4.39	10.1512 15.3072 2.57096	
4.4	10.135 15.5548 2.79185	
4.41	10.1235 15.8088 2.99251	
4.42	10.1179 16.0151 3.15781	
4.43	10.1133 16.1769 3.25597	
4.44	10.1034 16.3825 3.33021	
4.45	10.0922 16.5946 3.39713	
4.46	10.0837 16.8147 3.4466	
4.47	10.0766 17.0364 3.47759	
4.48	10.0693 17.2643 3.51567	
4.49	10.0634 17.4428 3.54758	
4.5	10.0513 17.6205 3.579	
4.51	10.0394 17.8036 3.61568	
4.52	10.0295 18.0087 3.64919	
4.53	10.0251 18.1902 3.67592	
4.54	10.0249 18.3317 3.68617	
4.55	10.0108 18.5126 3.7042	
4.56	9.99306 18.671 3.69067	
4.57	9.98763 18.7872 3.6533	
4.58	9.9809 18.9192 3.63669	
4.59	9.97678 19.0446 3.60257	
4.6	9.97218 19.1311 3.52226	
4.61	9.97038 19.2093 3.45925	
4.62	9.96981 19.3154 3.39741	
4.63	9.95215 19.4396 3.3349	
4.64	9.90565 19.562 3.26553	
4.65	9.86879 19.713 3.20369	
4.66	9.83317 19.9232 3.14122	
4.67	9.82734 19.9209 3.13629	
4.68	9.82369 19.9203 3.13589	
4.69	9.82101 19.9191 3.13341	
4.7	9.81925 19.9184 3.13173	
4.71	9.81837 19.918 3.13089	
4.72	9.81889 19.9171 3.1275	
4.73	9.81868 19.9174 3.12871	
4.74	9.82174 19.9175 3.12739	
4.75	9.83132 19.9181 3.12413	
4.76	9.83746 19.9247 3.14434	
4.77	9.84595 19.9263 3.14574	
4.78	9.85109 19.9295 3.15526	
4.79	9.85476 19.9311 3.15989	
4.8	9.85694 19.9323 3.16343	
4.81	9.85999 19.933 3.16465	
4.82	9.86252 19.9342 3.1684	
4.83	9.86332 19.9348 3.17033	
4.84	9.86508 19.9365 3.17648	
4.85	9.86684 19.9375 3.17975	
4.86	9.86711 19.9379 3.18136	
4.87	9.87291 19.9395 3.18553	
4.88	9.87755 19.9406 3.1881	
4.89	9.88059 19.9417 3.19117	
4.9	9.88253 19.9421 3.19218	
4.91	9.88336 19.9423 3.19261	
4.92	9.88572 19.9427 3.19322	
4.93	9.886 19.9427 3.19336	
4.94	9.88504 19.9426 3.19345	
4.95	9.88628 19.9428 3.1935	
4.96	9.88532 19.9427 3.19359	
4.97	9.88532 19.9427 3.19359	
4.98	9.88532 19.9427 3.19359	
4.99	9.88532 19.9427 3.19359	
5	9.88532 19.9427 3.19359	
5.01	9.88532 19.9427 3.19359	
5.02	9.88532 19.9427 3.19359	
5.03	9.88656 19.9428 3.19364	
5.04	9.88532 19.9427 3.19359	
5.05	9.88532 19.9427 3.19359	
5.06	9.88532 19.9427 3.19359	
5.07	9.88656 19.9428 3.19364	
5.08	9.88532 19.9427 3.19359	
5.09	9.88532 19.9427 3.19359	
5.1	9.88532 19.9427 3.19359	
5.11	9.88656 19.9428 3.19364	
5.12	9.88532 19.9427 3.19359	
5.13	9.88656 19.9428 3.19364	
5.14	9.88532 19.9427 3.19359	
5.15	9.88532 19.9427 3.19359	
5.16	9.88532 19.9427 3.19359	
5.17	9.88532 19.9427 3.19359	
5.18	9.88532 19.9427 3.19359	
5.19	9.88532 19.9427 3.19359	
5.2	9.88656 19.9428 3.19364	
