# Gnuplot File : positions of 1 particle(s) Monitored
# 1st Column : time, others : particle(s) number 0 
0.01	9.8527 19.9355 3.17966	
0.02	9.8527 19.9355 3.1794	
0.03	9.85295 19.9359 3.18082	
0.04	9.85148 19.9353 3.17899	
0.05	9.8527 19.9355 3.17895	
0.06	9.8527 19.9355 3.17888	
0.07	9.8527 19.9355 3.17882	
0.08	9.85511 19.9309 3.15876	
0.09	9.8527 19.9305 3.1586	
0.1	9.87518 19.3425 3.34112	
0.11	9.92951 19.0021 3.49946	
0.12	9.94671 18.6163 3.48184	
0.13	9.95079 18.2533 3.61762	
0.14	9.99831 17.8905 3.67891	
0.15	10.1177 17.5887 3.78893	
0.16	10.3023 17.3067 3.90353	
0.17	10.5013 17.0971 4.00446	
0.18	10.7312 17.0133 4.07501	
0.19	10.9176 16.9702 4.22321	
0.2	11.1224 17.0192 4.36451	
0.21	11.3067 17.0598 4.41645	
0.22	11.5172 17.0388 4.51695	
0.23	11.711 16.9923 4.57457	
0.24	11.8871 16.9012 4.65025	
0.25	12.0437 16.7807 4.65062	
0.26	12.1859 16.6429 4.6434	
0.27	12.2669 16.4857 4.63535	
0.28	12.3178 16.2877 4.6251	
0.29	12.3536 16.1217 4.62224	
0.3	12.3937 15.9431 4.61758	
0.31	12.4246 15.7819 4.61984	
0.32	12.4403 15.5983 4.61995	
0.33	12.443 15.4138 4.62414	
0.34	12.4451 15.2211 4.63894	
0.35	12.4624 15.0801 4.65045	
0.36	12.4743 14.9441 4.66245	
0.37	12.4955 14.8087 4.67349	
0.38	12.5159 14.6351 4.68985	
0.39	12.5468 14.4595 4.71227	
0.4	12.5726 14.2936 4.73279	
0.41	12.5708 14.1134 4.74934	
0.42	12.5596 13.9611 4.74578	
0.43	12.5291 13.8294 4.7569	
0.44	12.4438 13.7394 4.76251	
0.45	12.2874 13.6645 4.77299	
0.46	12.0044 13.5953 4.77071	
0.47	11.6708 13.5524 4.76142	
0.48	11.3617 13.5358 4.76084	
0.49	11.0285 13.5009 4.76132	
0.5	10.692 13.4789 4.76153	
0.51	10.398 13.4654 4.76167	
0.52	10.1448 13.4587 4.76357	
0.53	9.91333 13.4565 4.76523	
0.54	9.69064 13.4576 4.76562	
0.55	9.45002 13.463 4.76752	
0.56	9.23151 13.4711 4.76948	
0.57	9.03522 13.4813 4.76979	
0.58	8.82398 13.4947 4.77041	
0.59	8.6098 13.5084 4.76632	
0.6	8.39239 13.5199 4.75266	
0.61	8.19529 13.5152 4.73854	
0.62	8.05024 13.505 4.73344	
0.63	7.93904 13.4809 4.73081	
0.64	7.86992 13.449 4.73358	
0.65	7.78395 13.3996 4.7285	
0.66	7.66505 13.3539 4.72324	
0.67	7.53442 13.2761 4.71899	
0.68	7.44333 13.2015 4.70957	
0.69	7.42003 13.1294 4.70368	
0.7	7.39838 13.0144 4.70578	
0.71	7.37975 12.8658 4.71293	
0.72	7.35468 12.7102 4.70344	
0.73	7.33932 12.5787 4.6731	
0.74	7.32035 12.4312 4.64536	
0.75	7.29013 12.2441 4.62983	
0.76	7.26184 12.0688 4.61533	
0.77	7.24028 11.9048 4.60236	
0.78	7.22312 11.7997 4.58738	
0.79	7.20056 11.6265 4.59358	
0.8	7.16127 11.4233 4.60651	
0.81	7.13447 11.2143 4.62501	
0.82	7.14182 11.0156 4.65431	
0.83	7.19941 10.8585 4.70172	
0.84	7.23126 10.7257 4.72218	
0.85	7.21666 10.6175 4.75515	
0.86	7.20278 10.5136 4.78508	
0.87	7.19883 10.4377 4.81601	
0.88	7.20202 10.3642 4.8419	
0.89	7.22662 10.2936 4.86859	
0.9	7.26687 10.2232 4.88572	
0.91	7.33003 10.1536 4.91162	
0.92	7.40574 10.113 4.92491	
0.93	7.52413 10.0615 4.93865	
0.94	7.66175 10.0248 4.94791	
0.95	7.85982 9.99862 4.95343	
0.96	8.08373 9.97638 4.95299	
0.97	8.33851 9.95411 4.95093	
0.98	8.58999 9.94301 4.95045	
0.99	8.83731 9.93714 4.95701	
1	9.04573 9.93529 4.9584	
1.01	9.26183 9.93375 4.95886	
1.02	9.47289 9.94585 4.95712	
1.03	9.69728 9.97272 4.94338	
1.04	9.91558 9.98947 4.94026	
1.05	10.1187 9.99221 4.94078	
1.06	10.3205 10.0017 4.93834	
1.07	10.5018 10.0078 4.93795	
1.08	10.7327 10.0178 4.93745	
1.09	10.9525 10.0303 4.93697	
1.1	11.1365 10.0429 4.93679	
1.11	11.2972 10.0554 4.93706	
1.12	11.449 10.0679 4.93573	
1.13	11.5778 10.0901 4.93238	
1.14	11.7209 10.1044 4.93261	
1.15	11.8579 10.1193 4.9333	
1.16	11.9801 10.1384 4.93209	
1.17	12.0823 10.1333 4.9329	
1.18	12.1646 10.1332 4.93701	
1.19	12.2366 10.1244 4.92236	
1.2	12.2913 10.0773 4.9192	
1.21	12.3131 10.0157 4.91997	
1.22	12.3245 9.94386 4.91254	
1.23	12.3362 9.86964 4.91378	
1.24	12.3486 9.79172 4.90536	
1.25	12.3581 9.72431 4.89465	
1.26	12.3687 9.64874 4.87741	
1.27	12.3732 9.574 4.86397	
1.28	12.3868 9.48428 4.85324	
1.29	12.3936 9.40034 4.8444	
1.3	12.4044 9.31796 4.83722	
1.31	12.4113 9.21412 4.83552	
1.32	12.4163 9.12021 4.8451	
1.33	12.4219 9.03171 4.85357	
1.34	12.4309 8.94954 4.86091	
1.35	12.4441 8.86265 4.86847	
1.36	12.4561 8.76816 4.87135	
1.37	12.459 8.68759 4.88411	
1.38	12.4627 8.58764 4.88867	
1.39	12.4761 8.49372 4.89003	
1.4	12.4836 8.37738 4.90924	
1.41	12.4978 8.2679 4.92822	
1.42	12.5026 8.17035 4.93526	
1.43	12.5139 8.08493 4.94164	
1.44	12.5235 8.01079 4.94836	
1.45	12.5321 7.94244 4.93829	
1.46	12.539 7.8899 4.92595	
1.47	12.5395 7.83454 4.90701	
1.48	12.5403 7.76449 4.89224	
1.49	12.5482 7.70165 4.89708	
1.5	12.5565 7.63703 4.91301	
1.51	12.561 7.53853 4.9614	
1.52	12.5374 7.40088 5.05144	
1.53	12.5264 7.27728 5.14399	
1.54	12.5332 7.1654 5.23101	
1.55	12.535 7.08058 5.30168	
1.56	12.5351 6.99965 5.36722	
1.57	12.5301 6.90186 5.44818	
1.58	12.4961 6.83291 5.49538	
1.59	12.442 6.76595 5.53841	
1.6	12.3646 6.70439 5.59069	
1.61	12.2547 6.66892 5.61802	
1.62	12.1353 6.62758 5.62674	
1.63	12.0144 6.59761 5.63685	
1.64	11.858 6.56444 5.64434	
1.65	11.6963 6.54176 5.64931	
1.66	11.5282 6.52785 5.6468	
1.67	11.3309 6.51338 5.64433	
1.68	11.1261 6.50175 5.64706	
1.69	10.9372 6.49285 5.65016	
1.7	10.7839 6.48651 5.65163	
1.71	10.6196 6.48044 5.6518	
1.72	10.4569 6.47606 5.6536	
1.73	10.2661 6.4677 5.65712	
1.74	10.0435 6.45257 5.64969	
1.75	9.85674 6.44156 5.64889	
1.76	9.67666 6.43455 5.65715	
1.77	9.49579 6.43767 5.66042	
1.78	9.27725 6.43783 5.66289	
1.79	9.09437 6.43939 5.66795	
1.8	8.91333 6.43792 5.67431	
1.81	8.7587 6.43648 5.68061	
1.82	8.57343 6.43724 5.68687	
1.83	8.43187 6.44519 5.68895	
1.84	8.30858 6.44785 5.69143	
1.85	8.1797 6.44869 5.69973	
1.86	8.03355 6.45571 5.70398	
1.87	7.8859 6.45433 5.71186	
1.88	7.74062 6.46246 5.71347	
1.89	7.63812 6.47124 5.71356	
1.9	7.55247 6.47956 5.7175	
1.91	7.47957 6.48357 5.72424	
1.92	7.43277 6.48441 5.71182	
1.93	7.40286 6.48405 5.70188	
1.94	7.39692 6.46697 5.69767	
1.95	7.39075 6.42285 5.6854	
1.96	7.36796 6.37246 5.65894	
1.97	7.34941 6.29265 5.61877	
1.98	7.32824 6.20398 5.58007	
1.99	7.30271 6.14304 5.52577	
2	7.29249 6.06933 5.45783	
2.01	7.28442 6.02577 5.39708	
2.02	7.28727 5.9785 5.33957	
2.03	7.28975 5.94401 5.28679	
2.04	7.28337 5.90054 5.25773	
2.05	7.28661 5.85438 5.23237	
2.06	7.2818 5.81427 5.19436	
2.07	7.27587 5.76928 5.17679	
2.08	7.27877 5.7016 5.13116	
2.09	7.26101 5.63546 5.07509	
2.1	7.25481 5.572 5.04227	
2.11	7.2514 5.53672 5.01722	
2.12	7.26804 5.49831 4.99362	
2.13	7.26377 5.45418 4.98246	
2.14	7.25942 5.40355 4.97787	
2.15	7.2406 5.33043 4.94571	
2.16	7.2321 5.24031 4.93414	
2.17	7.2418 5.16659 4.92305	
2.18	7.26091 5.08193 4.89207	
2.19	7.28641 4.97047 4.87599	
2.2	7.30381 4.85796 4.85765	
2.21	7.32749 4.73412 4.83642	
2.22	7.34393 4.6038 4.82632	
2.23	7.3883 4.4864 4.83717	
2.24	7.45231 4.37027 4.85982	
2.25	7.51775 4.26283 4.86617	
2.26	7.59452 4.14453 4.88487	
2.27	7.68528 4.06056 4.91109	
2.28	7.79979 3.99715 4.92468	
2.29	7.9347 3.94639 4.92281	
2.3	8.11347 3.91995 4.89498	
2.31	8.34328 3.9046 4.85322	
2.32	8.60394 3.91164 4.76824	
2.33	8.94508 3.94503 4.6635	
2.34	9.31366 4.02689 4.54258	
2.35	9.62451 4.12253 4.40942	
2.36	9.86518 4.20593 4.29944	
2.37	10.0777 4.29202 4.19078	
2.38	10.2936 4.4337 4.03909	
2.39	10.4668 4.63615 3.88599	
2.4	10.6088 4.85691 3.75355	
2.41	10.7091 5.06145 3.60877	
2.42	10.7705 5.2749 3.42857	
2.43	10.7928 5.56187 3.23379	
2.44	10.814 5.86777 3.07678	
2.45	10.8275 6.15611 2.93328	
2.46	10.824 6.43158 2.8417	
2.47	10.8093 6.74489 2.78904	
2.48	10.7941 7.05836 2.75268	
2.49	10.764 7.3466 2.77446	
2.5	10.7283 7.70419 2.8155	
2.51	10.7117 7.99269 2.81379	
2.52	10.6998 8.2777 2.87928	
2.53	10.6554 8.58433 2.92047	
2.54	10.6117 8.78587 2.94224	
2.55	10.5598 9.04473 2.9814	
2.56	10.506 9.29878 3.03282	
2.57	10.477 9.56391 3.06007	
2.58	10.4267 9.84945 3.11556	
2.59	10.4258 10.2513 3.19146	
2.6	10.4371 10.5875 3.21507	
2.61	10.44 10.9019 3.1946	
2.62	10.4326 11.2512 3.13504	
2.63	10.4296 11.5843 3.0752	
2.64	10.4271 11.9128 3.03464	
2.65	10.4212 12.2686 2.97546	
2.66	10.4056 12.5709 2.94728	
2.67	10.3789 12.8856 2.97701	
2.68	10.3632 13.1792 2.99539	
2.69	10.3582 13.4926 3.00652	
2.7	10.3478 13.7971 3.04383	
2.71	10.3378 14.0907 3.03742	
2.72	10.3264 14.3776 3.0151	
2.73	10.317 14.6408 3.00821	
2.74	10.3143 14.8606 3.00576	
2.75	10.3082 15.066 2.99569	
2.76	10.2983 15.2607 2.98966	
2.77	10.2926 15.4244 2.9914	
2.78	10.2872 15.5701 2.9896	
2.79	10.2825 15.7121 2.99422	
2.8	10.2753 15.8291 3.00636	
2.81	10.2751 15.9554 3.0156	
2.82	10.2936 16.0972 3.02331	
2.83	10.3051 16.2172 3.03066	
2.84	10.2965 16.3643 3.04489	
2.85	10.284 16.5442 3.06497	
2.86	10.2818 16.7079 3.08712	
2.87	10.2741 16.8817 3.11158	
2.88	10.2713 16.9692 3.12466	
2.89	10.2617 17.0638 3.14614	
2.9	10.2584 17.2151 3.16996	
2.91	10.2605 17.349 3.18997	
2.92	10.2537 17.4754 3.20631	
2.93	10.2396 17.4921 3.19667	
2.94	10.2123 17.515 3.19008	
2.95	10.1934 17.5927 3.16554	
2.96	10.1817 17.6885 3.0905	
2.97	10.167 17.6907 3.06714	
2.98	10.1593 17.6781 3.07635	
2.99	10.1566 17.6434 3.09393	
3	10.1454 17.5576 3.18336	
3.01	10.1343 17.4394 3.39099	
3.02	10.1133 17.3538 3.61119	
3.03	10.0997 17.3039 3.78583	
3.04	10.0977 17.3123 3.8755	
3.05	10.0965 17.3999 3.9227	
3.06	10.09 17.497 3.95532	
3.07	10.0682 17.6019 3.9832	
3.08	10.0414 17.7115 4.01157	
3.09	10.0061 17.8522 4.04324	
3.1	9.97212 18.0997 4.08845	
3.11	9.9471 18.3646 4.1146	
3.12	9.92217 18.6414 4.12972	
3.13	9.88005 18.8103 4.04245	
3.14	9.81854 19.0537 3.90027	
3.15	9.76762 19.3211 3.70035	
3.16	9.77133 19.5458 3.5346	
3.17	9.77649 19.7065 3.36217	
3.18	9.86076 19.9329 3.16367	
3.19	9.86412 19.9318 3.15795	
3.2	9.86024 19.9327 3.16335	
3.21	9.86024 19.9327 3.16335	
3.22	9.86144 19.9314 3.15766	
3.23	9.86024 19.9324 3.16191	
3.24	9.85997 19.9308 3.156	
3.25	9.86144 19.9299 3.15192	
3.26	9.86144 19.9292 3.14905	
3.27	9.86024 19.9327 3.16335	
3.28	9.85997 19.9326 3.16319	
3.29	9.85997 19.9334 3.16607	
3.3	9.85875 19.9357 3.17609	
3.31	9.85875 19.937 3.18187	
3.32	9.85874 19.938 3.18621	
3.33	9.85874 19.9384 3.18765	
3.34	9.85874 19.9387 3.1891	
3.35	9.85874 19.9387 3.1891	
3.36	9.85751 19.9385 3.18904	
3.37	9.85777 19.9386 3.1892	
3.38	9.85874 19.9387 3.1891	
3.39	9.85874 19.939 3.19055	
3.4	9.85874 19.939 3.19055	
3.41	9.85751 19.9385 3.18904	
3.42	9.85751 19.9385 3.18904	
3.43	9.85751 19.9385 3.18904	
3.44	9.85874 19.9387 3.1891	
3.45	9.85874 19.939 3.19055	
3.46	9.85751 19.9385 3.18904	
3.47	9.85874 19.939 3.19055	
3.48	9.85777 19.9389 3.19065	
3.49	9.85777 19.9386 3.1892	
3.5	9.85874 19.9387 3.1891	
3.51	9.85874 19.9387 3.1891	
3.52	9.85874 19.9387 3.1891	
3.53	9.85751 19.9385 3.18904	
3.54	9.85751 19.9385 3.18904	
3.55	9.85751 19.9385 3.18904	
3.56	9.85751 19.9389 3.19048	
