# Gnuplot File : positions of 1 particle(s) Monitored
# 1st Column : time, others : particle(s) number 0 
0.01	8.05276 14.0108 1.4125	
0.02	8.04997 14.0144 1.41356	
0.03	8.04997 14.0144 1.41338	
0.04	8.05186 14.0121 1.41231	
0.05	8.05186 14.0095 1.41316	
0.06	8.05186 14.0095 1.413	
0.07	8.04997 14.0144 1.41273	
0.08	8.04997 14.0144 1.41258	
0.09	8.14456 13.9798 1.33907	
0.1	8.43128 13.8916 1.15761	
0.11	8.58328 13.8547 1.07416	
0.12	8.59726 13.8573 1.06527	
0.13	8.61948 12.5876 1.42088	
0.14	8.67902 11.6307 1.99824	
0.15	8.71004 10.755 2.45008	
0.16	8.91087 9.7087 2.58409	
0.17	9.24908 8.85816 2.84928	
0.18	9.83786 8.20796 3.32881	
0.19	10.3778 7.70244 4.05231	
0.2	10.7903 7.31047 4.77732	
0.21	11.1339 7.03046 5.21662	
0.22	11.4469 7.16734 5.21953	
0.23	11.7684 7.27474 5.23676	
0.24	11.9587 7.34128 5.20544	
0.25	12.0203 7.24633 5.04296	
0.26	12.1214 7.08838 4.7634	
0.27	12.1817 7.13594 4.69787	
0.28	12.2128 7.24963 4.71399	
0.29	12.2372 7.29435 4.7085	
0.3	12.2593 7.31867 4.68708	
0.31	12.2811 7.42311 4.65676	
0.32	12.2899 7.5561 4.55889	
0.33	12.3243 7.65107 4.3891	
0.34	12.3568 7.66032 4.17837	
0.35	12.3598 7.71146 4.04056	
0.36	12.3677 7.77191 3.99675	
0.37	12.3722 7.79268 3.97202	
0.38	12.3728 7.81742 3.92311	
0.39	12.3736 7.83261 3.86613	
0.4	12.3742 7.86308 3.76825	
0.41	12.3609 7.87577 3.56288	
0.42	12.3635 7.84631 3.31119	
0.43	12.3595 7.82219 3.15386	
0.44	12.2658 7.80981 3.01579	
0.45	12.2108 7.79322 2.8534	
0.46	12.1609 7.78798 2.77922	
0.47	12.1341 7.80107 2.66489	
0.48	12.1187 7.85088 2.59918	
0.49	12.1114 7.90016 2.54842	
0.5	12.1009 7.99829 2.5047	
0.51	12.0964 8.13632 2.37333	
0.52	12.0931 8.31246 2.31042	
0.53	12.0957 8.601 2.28873	
0.54	12.1643 8.89294 2.28227	
0.55	12.2055 9.14735 2.2846	
0.56	12.2741 9.3447 2.30458	
0.57	12.3485 9.45501 2.36895	
0.58	12.3988 9.56285 2.44353	
0.59	12.4593 9.56557 2.50762	
0.6	12.5153 9.58715 2.55133	
0.61	12.612 9.62534 2.54658	
0.62	12.6386 9.664 2.52758	
0.63	12.6597 9.64243 2.47418	
0.64	12.6235 9.55168 2.21215	
0.65	12.1875 9.39629 1.7434	
0.66	11.5997 9.24842 1.49211	
0.67	10.8758 9.22927 1.29829	
0.68	10.3461 9.20115 1.31396	
0.69	9.84258 9.30396 1.41105	
0.7	9.44455 9.31769 1.59609	
0.71	9.03405 9.42836 1.8167	
0.72	8.70799 9.54232 2.09007	
0.73	8.46057 9.62963 2.42217	
0.74	8.36204 9.67165 2.52972	
0.75	8.30717 9.71752 2.60534	
0.76	8.10454 9.76071 2.69151	
0.77	7.93261 9.74927 2.87077	
0.78	7.76248 9.77026 3.07959	
0.79	7.6685 9.76236 3.26346	
0.8	7.63398 9.76088 3.36746	
0.81	7.60791 9.76572 3.44552	
0.82	7.58176 9.78178 3.51406	
0.83	7.55855 9.80968 3.60475	
0.84	7.4869 9.83716 3.68563	
0.85	7.43309 9.85342 3.77319	
0.86	7.40318 9.86384 3.87752	
0.87	7.39501 9.8423 3.95308	
0.88	7.27635 9.84672 4.06953	
0.89	7.00833 9.79569 4.21249	
0.9	6.71957 9.65585 4.40061	
0.91	6.54681 9.46472 4.69437	
0.92	6.51177 9.29073 5.09786	
0.93	6.57721 9.09486 5.65239	
0.94	6.6016 8.93148 6.32451	
0.95	6.56907 8.79447 6.99063	
0.96	6.5538 8.68723 7.26423	
0.97	6.61957 8.69994 6.89514	
0.98	6.98211 8.85544 5.92709	
0.99	7.73333 9.11332 5.0309	
1	8.62037 9.19859 4.54048	
1.01	9.32585 9.28471 4.19051	
1.02	9.84545 9.25902 3.99509	
1.03	10.2175 9.29883 3.86061	
1.04	10.4481 9.32494 3.78605	
1.05	10.5989 9.39307 3.68916	
1.06	10.7177 9.45963 3.6048	
1.07	10.778 9.53667 3.51111	
1.08	10.8013 9.58303 3.47702	
1.09	10.8038 9.63136 3.4178	
1.1	10.7785 9.65754 3.36277	
1.11	10.7824 9.69073 3.24403	
1.12	10.7888 9.6856 3.12102	
1.13	10.7812 9.67445 2.9865	
1.14	10.7659 9.62591 2.88998	
1.15	10.7164 9.56337 2.80037	
1.16	10.6405 9.49806 2.73125	
1.17	10.6045 9.47859 2.68706	
1.18	10.5787 9.4783 2.6759	
1.19	10.5729 9.5104 2.67035	
1.2	10.4877 9.48794 2.63199	
1.21	10.3655 9.46728 2.59712	
1.22	10.2788 9.48524 2.57696	
1.23	10.2246 9.47869 2.56169	
1.24	10.1692 9.5096 2.53188	
1.25	10.1031 9.53309 2.47772	
1.26	9.99531 9.52567 2.39828	
1.27	9.92075 9.52432 2.34884	
1.28	9.86071 9.53196 2.31199	
1.29	9.82798 9.53813 2.29323	
1.3	9.85176 9.55386 2.26475	
1.31	9.85985 9.55839 2.25789	
1.32	9.85789 9.53907 2.23392	
1.33	9.81464 9.53169 2.23522	
1.34	9.78701 9.55925 2.16429	
1.35	9.78801 9.55421 2.18968	
1.36	9.75816 9.53637 2.19425	
1.37	9.8103 9.45323 2.20985	
1.38	9.85616 9.39767 2.28481	
1.39	9.91086 9.32309 2.3709	
1.4	9.91562 9.24796 2.49667	
1.41	9.92217 9.19857 2.7467	
1.42	9.92617 9.19143 2.93793	
1.43	9.91991 9.14397 3.04954	
1.44	9.90951 9.04286 3.15378	
1.45	9.89067 8.93666 3.29006	
1.46	9.87047 8.83663 3.44297	
1.47	9.82442 8.80014 3.53252	
1.48	9.80334 8.81128 3.52664	
1.49	9.79046 8.82317 3.51101	
1.5	9.70245 8.81873 3.50251	
1.51	9.59084 8.80344 3.42402	
1.52	9.45113 8.7931 3.3657	
1.53	9.34633 8.748 3.19452	
1.54	9.31226 8.75994 3.00381	
1.55	9.30651 8.76678 2.83928	
1.56	9.30973 8.75014 2.70888	
1.57	9.32187 8.76231 2.66933	
1.58	9.33712 8.77261 2.63204	
1.59	9.3419 8.79404 2.60038	
1.6	9.35032 8.8379 2.57636	
1.61	9.35602 8.86083 2.52431	
1.62	9.36057 8.87904 2.473	
1.63	9.35809 8.88928 2.37621	
1.64	9.36492 8.89677 2.22321	
1.65	9.38281 8.89963 2.11141	
1.66	9.38048 8.91739 2.20338	
1.67	9.37649 8.95053 2.1897	
1.68	9.33548 8.97728 2.17893	
1.69	9.2953 8.97636 2.14199	
1.7	9.24075 8.99453 2.1253	
1.71	9.23655 9.02398 2.12201	
1.72	9.24753 9.09268 2.12928	
1.73	9.35021 9.23168 2.15775	
1.74	9.55932 9.37434 2.20903	
1.75	9.66088 9.47802 2.24	
1.76	9.74042 9.60371 2.1933	
1.77	9.81339 9.67326 2.1596	
1.78	9.81373 9.69317 1.99183	
1.79	9.77938 9.70637 1.8812	
1.8	9.75799 9.70858 1.78503	
1.81	9.76171 9.62609 1.43665	
1.82	9.74225 9.46487 0.968987	
1.83	9.55501 9.44884 0.852562	
1.84	9.51015 9.31951 0.599162	
1.85	9.06066 9.15316 0.416613	
1.86	8.62591 9.20153 0.31761	
1.87	8.10779 9.16774 0.388171	
1.88	8.13434 9.19445 0.527165	
1.89	8.08066 9.26381 0.740685	
1.9	7.60312 9.34371 1.01822	
1.91	7.58238 9.41457 1.47284	
1.92	7.39444 9.49416 1.78226	
1.93	7.18854 9.51016 2.40491	
1.94	7.08859 9.61473 3.10576	
1.95	7.14776 9.70558 3.58975	
1.96	7.18261 9.69868 3.99275	
1.97	7.31083 9.61186 4.37184	
1.98	7.32466 9.53378 4.57658	
1.99	7.42337 9.45047 4.72871	
2	7.70925 9.43437 4.93125	
2.01	7.97617 9.4367 5.14737	
2.02	8.09322 9.48923 5.36829	
2.03	8.18663 9.56596 5.41816	
2.04	8.41994 9.59699 5.50897	
2.05	8.79162 9.67041 5.43695	
2.06	8.68643 9.6926 5.46291	
2.07	8.56678 9.67913 5.45544	
2.08	8.50655 9.65548 5.44821	
2.09	8.47087 9.63485 5.44591	
2.1	8.37569 9.60174 5.52141	
2.11	8.24752 9.5384 5.56302	
2.12	8.01297 9.55819 5.64086	
2.13	7.77857 9.56296 5.66359	
2.14	7.67383 9.51913 5.6845	
2.15	7.6494 9.49375 5.74299	
2.16	7.64382 9.46592 5.80749	
2.17	7.63415 9.40062 5.8819	
2.18	7.62993 9.34484 5.97143	
2.19	7.60067 9.24511 6.1003	
2.2	7.56963 9.10389 6.40336	
2.21	7.5288 8.84194 7.09367	
2.22	7.46551 8.52662 8.14623	
2.23	7.39914 8.0988 9.24965	
2.24	7.29407 7.6473 10.2323	
2.25	7.27959 7.22212 11.0127	
2.26	7.20186 6.90579 11.6936	
2.27	6.93477 6.62657 12.089	
2.28	6.44423 6.42395 12.2066	
2.29	5.73892 6.33112 11.9572	
2.3	4.80539 6.138 11.0265	
2.31	4.17233 6.20796 9.52352	
2.32	4.06737 6.39991 7.78547	
2.33	4.55941 6.81 6.24542	
2.34	5.59957 6.96263 5.46018	
2.35	6.44168 7.10612 5.01773	
2.36	6.96332 7.21679 4.7581	
2.37	7.10616 7.3026 4.54353	
2.38	7.16244 7.32187 4.4701	
2.39	7.17604 7.36016 4.42859	
2.4	7.20035 7.38234 4.37185	
2.41	7.25892 7.50935 4.27249	
2.42	7.32358 7.54805 4.19514	
2.43	7.38953 7.63611 4.10327	
2.44	7.56264 7.7853 3.90233	
2.45	8.0897 8.0817 3.49014	
2.46	9.5518 8.03382 2.95319	
2.47	10.3198 8.29471 2.73617	
2.48	10.5945 8.3839 2.66181	
2.49	10.6742 8.43079 2.67379	
2.5	10.7474 8.43665 2.69613	
2.51	10.8171 8.45825 2.72072	
2.52	10.8409 8.46214 2.75817	
2.53	10.8166 8.45255 2.77331	
2.54	10.7925 8.45986 2.77972	
2.55	10.7786 8.46343 2.78108	
2.56	10.6734 8.45947 2.77863	
2.57	10.4867 8.45445 2.77087	
2.58	10.1154 8.43463 2.71763	
2.59	9.61972 8.46798 2.6416	
2.6	9.27785 8.49594 2.52835	
2.61	9.1794 8.59634 2.45345	
2.62	9.17669 8.66977 2.42747	
2.63	9.213 8.73745 2.41013	
2.64	9.23089 8.7678 2.39204	
2.65	9.27851 8.81322 2.38423	
2.66	9.31094 8.88367 2.36384	
2.67	9.39875 8.97872 2.34427	
2.68	9.4271 9.0306 2.31074	
2.69	9.45848 9.08531 2.30538	
2.7	9.4943 9.13187 2.29351	
2.71	9.51659 9.17287 2.26429	
2.72	9.52253 9.19998 2.21818	
2.73	9.53096 9.19076 2.19942	
2.74	9.51876 9.18146 2.17249	
2.75	9.51958 9.19628 2.14546	
2.76	9.52425 9.25133 2.0911	
2.77	9.54045 9.33176 2.01834	
2.78	9.53792 9.41481 1.99828	
2.79	9.53172 9.47503 1.92261	
2.8	9.5023 9.51613 1.82844	
2.81	9.57985 9.57841 1.36445	
2.82	9.55627 9.47713 0.80142	
2.83	9.55147 9.4288 0.604737	
2.84	9.65637 9.38958 0.584761	
2.85	9.62602 9.36434 0.53503	
2.86	9.54091 9.30109 0.454566	
2.87	9.26841 9.22297 0.326924	
2.88	8.78036 9.1263 0.185378	
2.89	8.11967 9.0253 0.130791	
2.9	7.4474 8.92747 0.234318	
2.91	6.93491 9.08215 0.441887	
2.92	6.57233 8.75701 0.911935	
2.93	6.0876 8.78424 1.32811	
2.94	6.09768 8.72676 2.17879	
2.95	5.79447 8.86467 2.84692	
2.96	5.9349 8.92813 3.43408	
2.97	6.01676 8.89116 3.97672	
2.98	6.18448 8.80323 4.48625	
2.99	6.37754 8.75653 4.84387	
3	6.73682 8.57242 5.07157	
3.01	7.07388 8.53166 5.26637	
3.02	7.20625 8.49996 5.44495	
3.03	7.29524 8.43457 5.61013	
3.04	7.3361 8.36053 5.79516	
3.05	7.40269 8.28896 5.99672	
3.06	7.43246 8.28242 6.22641	
3.07	7.43509 8.26667 6.42667	
3.08	7.44586 8.22564 6.74654	
3.09	7.44729 8.08268 7.42207	
3.1	7.41267 7.98485 8.1625	
3.11	7.21221 8.00967 8.15883	
3.12	6.59948 8.39397 7.21369	
3.13	5.9906 8.76494 5.9907	
3.14	6.10524 8.82415 4.77372	
3.15	6.96227 8.93174 3.55982	
3.16	8.17726 8.94022 2.92198	
3.17	9.2427 8.98416 2.85692	
3.18	9.87392 9.02263 2.9838	
3.19	10.1943 9.15483 3.08939	
3.2	10.3989 9.27862 3.18303	
3.21	10.5062 9.46479 3.21887	
3.22	10.5891 9.58316 3.2541	
3.23	10.6112 9.67163 3.2433	
3.24	10.6247 9.74418 3.13671	
3.25	10.5772 9.75607 2.82554	
3.26	10.4702 9.66449 2.50265	
3.27	10.1763 9.48768 2.12687	
3.28	10.265 9.33653 2.03105	
3.29	10.1224 9.26704 1.71269	
3.3	10.0836 9.32499 1.65388	
3.31	10.1114 9.46423 1.59755	
3.32	9.96403 9.53417 1.46819	
3.33	9.87131 9.86867 1.35042	
3.34	9.61241 10.0665 1.25834	
3.35	9.82311 10.4302 1.30205	
3.36	9.54669 10.5826 1.08797	
3.37	9.3482 10.6289 0.962005	
3.38	9.14264 10.6345 0.797257	
3.39	8.88807 10.5826 0.670228	
3.4	8.38992 10.3291 0.6541	
3.41	7.84689 10.1682 0.789464	
3.42	7.53216 10.0835 1.06926	
3.43	7.40951 10.1186 1.18117	
3.44	7.20962 10.0405 1.43547	
3.45	7.02334 9.9113 1.84445	
3.46	6.3688 9.83849 3.90672	
3.47	6.59081 9.81673 4.42171	
3.48	6.61296 9.81688 4.54474	
3.49	6.50508 9.77041 4.25418	
3.5	6.2806 9.72436 3.80691	
3.51	6.01852 9.68171 3.40576	
3.52	6.63479 9.80183 3.99415	
3.53	7.03939 9.89795 4.12549	
3.54	7.21895 9.91561 4.16793	
3.55	7.39356 10.0031 4.20437	
3.56	7.64306 10.0653 4.23893	
3.57	8.07552 10.1441 4.21866	
3.58	8.50342 10.2697 4.13246	
3.59	8.5295 10.343 4.15751	
3.6	8.58874 10.3538 4.11736	
3.61	8.70145 10.3942 4.10161	
3.62	8.70947 10.4687 4.07976	
3.63	8.57944 10.4883 4.08983	
3.64	7.92139 10.5732 4.03041	
3.65	6.41869 10.1576 3.52899	
3.66	5.86656 10.5393 2.29356	
3.67	5.71036 10.5933 1.6736	
3.68	6.23142 10.5494 1.23786	
3.69	6.4143 10.5662 0.75567	
3.7	6.89551 10.5626 0.672262	
3.71	7.44727 10.7613 0.399252	
3.72	7.66559 11.0214 0.190251	
3.73	9.38136 11.8174 -0.560327	
3.74	10.3217 11.0219 4.63245	
3.75	9.64672 11.2343 5.00277	
3.76	9.86736 11.0729 4.94682	
3.77	9.63893 10.9624 4.93807	
3.78	9.64529 11.009 5.73444	
3.79	9.42225 10.9575 7.30519	
3.8	9.11116 10.602 8.55699	
3.81	8.62336 10.1381 9.23986	
3.82	8.36866 9.71692 9.43479	
3.83	7.67784 9.23366 8.62746	
3.84	7.4658 9.14727 8.00159	
3.85	7.42125 9.10729 7.40874	
3.86	7.42216 9.05681 6.88216	
3.87	7.51725 8.88756 6.14651	
3.88	7.58544 8.91557 5.51947	
3.89	8.15719 9.01638 4.532	
3.9	8.86517 9.35928 3.90067	
3.91	9.28921 9.51261 3.61627	
3.92	9.56128 9.54341 3.49104	
3.93	9.76968 9.4907 3.4446	
3.94	9.95842 9.44944 3.42749	
3.95	10.1639 9.41474 3.43798	
3.96	10.148 9.37733 3.47199	
3.97	9.98352 9.3433 3.49762	
3.98	9.94434 9.35558 3.49372	
3.99	9.95908 9.3905 3.56787	
4	9.88592 9.44882 3.66861	
4.01	9.91511 9.50997 3.70662	
4.02	10.0604 9.55334 3.76118	
4.03	10.1983 9.58743 3.86988	
4.04	10.3121 9.61785 3.93915	
4.05	10.4072 9.62517 3.9626	
4.06	10.4436 9.65392 3.92028	
4.07	10.4834 9.63762 3.83969	
4.08	10.4909 9.62274 3.70588	
4.09	10.4806 9.56157 3.54303	
4.1	10.4773 9.53328 3.51402	
4.11	10.4665 9.51182 3.48898	
4.12	10.465 9.50711 3.47795	
4.13	10.4613 9.49689 3.47256	
4.14	10.4559 9.48819 3.46559	
4.15	10.4366 9.48216 3.44299	
4.16	10.3976 9.47706 3.40486	
4.17	10.3853 9.46261 3.381	
4.18	10.3352 9.42976 3.29009	
4.19	10.2725 9.39898 3.19059	
4.2	10.2349 9.36961 3.11559	
4.21	10.1759 9.34894 3.03555	
4.22	10.1362 9.32923 2.9718	
4.23	10.0804 9.30522 2.87914	
4.24	10.0438 9.2661 2.78971	
4.25	9.96892 9.22414 2.68039	
4.26	9.9317 9.21131 2.56554	
4.27	9.87972 9.16368 2.42401	
4.28	9.82529 9.14263 2.29998	
4.29	9.80514 9.16348 2.18747	
4.3	9.80316 9.21213 2.17857	
4.31	9.81338 9.26299 2.21936	
4.32	9.80798 9.32578 2.18581	
4.33	9.8161 9.3915 2.1613	
4.34	9.83246 9.50456 2.1336	
4.35	9.85199 9.62273 2.11464	
4.36	9.88086 9.74064 2.11081	
4.37	9.90593 9.86655 2.10996	
4.38	9.92117 9.94763 2.10161	
4.39	9.93428 10.021 2.07459	
4.4	9.93072 10.0594 2.02569	
4.41	9.91962 10.0775 1.98397	
4.42	9.91046 10.0908 1.94723	
4.43	9.89112 10.0894 1.91484	
4.44	9.88337 10.1212 1.68241	
4.45	9.88086 10.1052 1.36356	
4.46	9.79346 10.1055 1.16684	
4.47	9.70509 10.1308 0.957748	
4.48	9.75399 10.1547 0.888369	
4.49	9.71048 10.1576 0.767817	
4.5	9.74496 10.1579 0.716069	
4.51	9.70663 10.1507 0.678639	
4.52	9.67107 10.1802 0.645166	
4.53	9.36178 10.1703 0.427756	
4.54	8.75853 10.0308 0.270799	
4.55	8.06168 9.96763 0.245543	
4.56	7.59113 9.91949 0.362657	
4.57	6.96301 9.8304 0.649292	
4.58	6.19972 9.67151 1.29812	
4.59	5.82172 9.52826 2.03236	
4.6	6.79755 9.32889 5.89302	
4.61	7.58506 9.25838 5.98056	
4.62	7.58382 9.32838 6.01387	
4.63	7.47954 9.33949 6.00827	
4.64	7.52969 9.33528 6.00529	
4.65	7.53542 9.34119 5.99448	
4.66	7.53087 9.34937 5.99169	
4.67	7.53142 9.35969 5.98909	
4.68	7.53626 9.36791 5.98735	
4.69	7.54738 9.38381 5.98712	
4.7	7.61417 9.34786 6.00857	
4.71	7.63624 9.29132 6.01572	
4.72	7.7288 9.22818 6.04287	
4.73	7.54686 9.24199 5.99507	
4.74	7.16282 9.16205 5.98294	
4.75	6.81386 9.00796 6.0912	
4.76	6.47839 8.84188 6.34308	
4.77	6.24321 8.7287 6.68186	
4.78	6.09738 8.77318 6.72696	
4.79	6.02525 8.74803 6.34204	
4.8	6.29017 8.71365 5.82436	
4.81	6.77053 8.76416 5.316	
4.82	7.15717 8.90012 4.84214	
4.83	7.36105 9.01253 4.20576	
4.84	7.74843 8.94962 3.74245	
4.85	8.47287 8.98757 3.35288	
4.86	9.04457 9.11954 3.07839	
4.87	9.2291 9.26133 2.91927	
4.88	9.41638 9.34451 2.78344	
4.89	9.54497 9.42545 2.69199	
4.9	9.68233 9.52071 2.60244	
4.91	9.76757 9.6492 2.52633	
4.92	9.84389 9.75836 2.46355	
4.93	9.92332 9.85836 2.33302	
4.94	9.8814 9.93709 2.19662	
4.95	9.92577 9.94473 2.09858	
4.96	9.922 9.9989 2.17164	
4.97	9.97874 10.0536 2.12557	
4.98	10.0123 10.1442 2.13055	
4.99	10.0894 10.2684 2.09999	
5	10.21 10.3728 2.09029	
5.01	10.1672 10.4386 2.08054	
5.02	10.2718 10.3474 1.92185	
5.03	10.223 10.342 1.62864	
5.04	10.5041 10.2951 1.58102	
5.05	10.7743 10.3138 1.27116	
5.06	10.2228 10.4187 1.27086	
5.07	9.87508 10.5265 0.93185	
5.08	9.84157 10.5534 0.716651	
5.09	9.62276 10.6251 0.680196	
5.1	9.68504 10.6657 0.636439	
5.11	9.7149 10.6818 0.546606	
5.12	9.68622 10.6754 0.504671	
5.13	9.70492 10.6477 0.477827	
5.14	9.67965 10.6373 0.465764	
5.15	9.69657 10.6271 0.444789	
5.16	9.69013 10.616 0.418301	
5.17	9.68729 10.6071 0.416816	
5.18	9.68612 10.6274 0.415476	
5.19	9.68118 10.6331 0.408412	
5.2	9.696 10.6319 0.405642	
5.21	9.69092 10.6319 0.399103	
5.22	9.68307 10.6444 0.388675	
5.23	9.65972 10.6914 0.361379	
5.24	9.64503 10.7922 0.221914	
5.25	9.62701 10.8529 0.0393189	
5.26	9.62851 10.9056 -0.0230489	
5.27	9.57437 10.9097 -0.487406	
5.28	9.73107 10.845 -0.485367	
5.29	9.56095 10.8841 -0.686071	
5.3	9.62343 10.8169 -0.57324	
5.31	9.42417 10.8126 -0.573296	
5.32	9.48431 10.801 -0.534723	
5.33	9.42934 10.8061 -0.539114	
5.34	9.51937 10.7752 -0.504531	
5.35	9.23664 10.7401 -0.49342	
5.36	9.16326 10.6734 -0.474562	
5.37	9.15839 10.6609 -0.475755	
5.38	9.16276 10.6552 -0.479429	
5.39	9.16802 10.6549 -0.482779	
5.4	9.13049 10.6737 -0.48399	
5.41	9.15856 10.6659 -0.47975	
5.42	9.13767 10.6644 -0.470821	
5.43	9.14204 10.6591 -0.471918	
5.44	9.14182 10.6558 -0.473292	
5.45	9.14692 10.6536 -0.473158	
5.46	9.14844 10.6522 -0.47363	
5.47	9.1469 10.6446 -0.472894	
5.48	9.05273 10.6111 -0.453155	
5.49	8.87479 10.5948 -0.402185	
5.5	8.07384 10.4338 -0.10507	
5.51	7.0206 10.271 0.802163	
5.52	6.58311 10.3049 1.85916	
5.53	6.46556 10.1644 2.212	
5.54	6.43572 10.0651 3.09215	
5.55	6.5289 9.93097 3.71502	
5.56	6.77028 9.73406 4.8101	
5.57	7.0585 9.66411 5.34082	
5.58	7.23826 9.51733 5.89365	
5.59	7.35586 9.37904 6.21021	
5.6	7.51043 9.28359 6.36111	
5.61	7.56204 9.28542 6.40011	
5.62	7.58704 9.2842 6.4182	
5.63	7.59066 9.29186 6.41955	
5.64	7.59383 9.27642 6.42311	
5.65	7.58977 9.23557 6.42562	
5.66	7.58606 9.16987 6.43376	
5.67	7.57518 9.04762 6.4508	
5.68	7.53196 8.70784 6.60913	
5.69	7.1239 8.04457 7.13867	
5.7	6.55824 7.08809 8.19824	
5.71	6.06035 6.18319 8.91053	
5.72	5.78567 5.70029 8.63514	
5.73	5.72077 5.43072 8.05731	
5.74	5.85979 5.08378 7.56429	
5.75	6.29886 4.8389 7.02007	
5.76	7.16447 4.61114 6.2887	
5.77	8.35853 4.52323 5.63159	
5.78	9.31536 4.30032 5.29458	
5.79	9.83877 3.94306 4.95957	
5.8	10.2711 3.587 5.10721	
5.81	10.5486 3.4327 5.24584	
5.82	10.7425 3.33194 5.22737	
5.83	10.8552 3.20836 5.22391	
5.84	10.9872 3.19499 5.2742	
5.85	11.1653 3.18614 5.30228	
5.86	11.313 3.13269 5.2527	
5.87	11.4558 3.01854 5.08984	
5.88	11.5652 2.86913 4.81022	
5.89	11.6569 2.70538 4.48704	
5.9	11.7521 2.57931 4.19953	
5.91	11.8563 2.43304 3.88045	
5.92	11.9681 2.3345 3.6993	
5.93	12.0824 2.26357 3.63855	
5.94	12.2116 2.25507 3.64019	
5.95	12.2739 2.26685 3.63833	
5.96	12.3156 2.36416 3.5821	
5.97	12.3491 2.4724 3.51252	
5.98	12.3622 2.64256 3.40879	
5.99	12.366 2.80897 3.30109	
6	12.3771 2.95875 3.20149	
6.01	12.3812 3.1074 3.10565	
6.02	12.4017 3.29102 3.01156	
6.03	12.4962 3.48206 2.95095	
6.04	12.6486 3.6558 2.89447	
6.05	12.8121 3.76555 2.85792	
6.06	12.897 3.82723 2.83547	
6.07	12.9567 3.91507 2.76844	
6.08	13.0186 4.00854 2.63889	
6.09	13.0238 4.04736 2.52458	
6.1	13.0323 4.03939 2.48537	
6.11	13.0343 4.04681 2.44012	
6.12	13.039 4.07442 2.29472	
6.13	13.1235 4.13133 2.35864	
6.14	13.1177 4.15579 2.27579	
6.15	13.1648 4.17614 2.35289	
6.16	13.1647 4.19091 2.20646	
6.17	13.0995 4.18975 2.09236	
6.18	12.8014 4.22218 1.68308	
6.19	12.0248 4.02452 0.949854	
6.2	11.3615 3.79281 0.587305	
6.21	9.88562 3.71296 0.705347	
6.22	9.65964 3.68687 0.785692	
6.23	9.42152 3.68176 0.945157	
6.24	9.04541 3.60196 1.38412	
6.25	9.43528 3.58143 1.74184	
6.26	9.19328 3.61786 1.87812	
6.27	9.23612 3.65136 2.0445	
6.28	9.07016 3.62562 2.42599	
6.29	9.00648 3.76745 2.44165	
6.3	8.999 3.90888 2.1478	
6.31	8.73235 4.15582 2.31168	
6.32	8.52839 4.12286 4.60866	
6.33	8.75195 2.23172 4.7912	
6.34	10.1101 3.84202 6.1825	
6.35	10.8395 4.06925 6.37878	
6.36	10.9024 3.96292 6.38616	
6.37	11.0911 3.53476 6.67141	
6.38	10.8128 2.74877 7.35439	
6.39	10.6036 2.18471 8.42244	
6.4	9.94296 1.97606 9.45575	
6.41	8.87566 2.11463 9.0155	
6.42	8.01352 2.61196 7.76976	
6.43	7.55493 3.60669 6.27146	
6.44	7.40567 5.15045 4.83028	
6.45	7.29372 6.67488 4.1118	
6.46	7.22932 7.98506 3.94562	
6.47	7.21647 9.23751 4.41193	
6.48	7.18269 10.3709 4.74811	
6.49	7.20002 11.2174 4.63007	
6.5	7.22658 11.8882 4.54709	
6.51	7.25524 12.5635 4.33815	
6.52	7.28147 12.8423 3.98289	
6.53	7.29075 13.2386 3.58196	
6.54	7.34038 13.8289 2.90642	
6.55	7.30616 14.5412 2.39392	
6.56	7.36926 14.4265 2.33181	
6.57	7.45261 14.3384 2.17626	
6.58	7.60043 14.1592 2.00733	
6.59	7.64784 14.1264 1.9384	
6.6	7.66105 14.1239 1.91436	
6.61	7.66439 14.1298 1.90267	
6.62	7.66488 14.1358 1.89575	
6.63	7.66679 14.1367 1.88904	
6.64	7.66865 14.1376 1.88258	
6.65	7.67117 14.1378 1.8756	
6.66	7.67221 14.1394 1.87041	
6.67	7.67533 14.1409 1.86293	
6.68	7.31527 14.4275 2.46821	
