# Gnuplot File : positions of 1 particle(s) Monitored
# 1st Column : time, others : particle(s) number 0 
0.01	9.83748 19.9255 3.14851	
0.02	9.83748 19.9255 3.14824	
0.03	9.83748 19.9252 3.14662	
0.04	9.83748 19.9255 3.1479	
0.05	9.83748 19.9255 3.1478	
0.06	9.83628 19.9253 3.14765	
0.07	9.83867 19.9257 3.14774	
0.08	9.83748 19.9255 3.14762	
0.09	9.83748 19.9255 3.14759	
0.1	9.83748 19.9255 3.14757	
0.11	9.83748 19.9255 3.14756	
0.12	9.83748 19.9255 3.14755	
0.13	9.83748 19.9255 3.14754	
0.14	9.85111 19.6206 3.25863	
0.15	9.84574 19.1311 3.74465	
0.16	9.87774 18.9503 3.77391	
0.17	10.032 18.6409 3.83727	
0.18	10.2478 18.2278 4.10781	
0.19	10.5108 17.957 4.25556	
0.2	10.7009 17.7553 4.24205	
0.21	11.011 17.6162 4.392	
0.22	11.4725 17.6742 4.5061	
0.23	11.7958 17.7291 4.5206	
0.24	12.0154 17.7417 4.53368	
0.25	12.1252 17.8079 4.55402	
0.26	12.1837 17.8429 4.60233	
0.27	12.2539 17.8714 4.60583	
0.28	12.2955 17.8754 4.60458	
0.29	12.3116 17.8484 4.59515	
0.3	12.3441 17.7208 4.56862	
0.31	12.4015 17.4762 4.53007	
0.32	12.4717 17.1951 4.49992	
0.33	12.5304 16.9602 4.44691	
0.34	12.5733 16.7712 4.43328	
0.35	12.5639 16.6241 4.43203	
0.36	12.5477 16.5178 4.42479	
0.37	12.5634 16.3999 4.42009	
0.38	12.5908 16.2766 4.41103	
0.39	12.6195 16.1083 4.40114	
0.4	12.6546 15.9596 4.40025	
0.41	12.6742 15.7965 4.40361	
0.42	12.6838 15.6164 4.41133	
0.43	12.7125 15.45 4.41851	
0.44	12.7311 15.2534 4.42884	
0.45	12.7449 15.0676 4.44201	
0.46	12.7139 14.895 4.46034	
0.47	12.7106 14.7401 4.47745	
0.48	12.701 14.5839 4.498	
0.49	12.6431 14.4123 4.51732	
0.5	12.5307 14.2737 4.53417	
0.51	12.3603 14.161 4.55028	
0.52	12.2224 14.1157 4.55584	
0.53	12.0436 14.0536 4.55926	
0.54	11.8733 14.0011 4.56388	
0.55	11.7077 13.8962 4.57241	
0.56	11.5245 13.8516 4.57548	
0.57	11.3011 13.7941 4.57948	
0.58	11.0347 13.7474 4.58281	
0.59	10.7464 13.7156 4.58685	
0.6	10.4702 13.6892 4.59135	
0.61	10.2556 13.6803 4.59309	
0.62	10.0513 13.6749 4.59377	
0.63	9.83568 13.6559 4.59543	
0.64	9.65381 13.6401 4.60024	
0.65	9.47182 13.6367 4.60131	
0.66	9.30539 13.6467 4.60136	
0.67	9.11721 13.6542 4.60045	
0.68	8.89113 13.6715 4.60079	
0.69	8.67312 13.7068 4.60003	
0.7	8.40962 13.7281 4.59998	
0.71	8.13929 13.7546 4.60115	
0.72	7.94568 13.7689 4.60302	
0.73	7.75649 13.7453 4.61255	
0.74	7.51731 13.6502 4.63773	
0.75	7.2924 13.5214 4.66584	
0.76	7.19106 13.3875 4.68994	
0.77	7.14541 13.2579 4.70535	
0.78	7.12945 13.1751 4.71537	
0.79	7.09676 12.9881 4.70938	
0.8	7.0583 12.7706 4.71342	
0.81	7.03388 12.595 4.68919	
0.82	7.00715 12.4143 4.66601	
0.83	7.00313 12.2483 4.66877	
0.84	7.00274 12.0928 4.69211	
0.85	6.99242 12.0037 4.7164	
0.86	7.00137 11.8992 4.7384	
0.87	6.99051 11.8053 4.76524	
0.88	6.98182 11.7153 4.78776	
0.89	6.97974 11.6253 4.80101	
0.9	6.97392 11.5429 4.80044	
0.91	6.98434 11.456 4.81491	
0.92	6.9999 11.39 4.824	
0.93	7.00551 11.3013 4.83196	
0.94	7.00284 11.2021 4.85048	
0.95	6.99869 11.0911 4.88502	
0.96	6.98514 10.9629 4.92886	
0.97	6.97132 10.8328 4.98332	
0.98	6.99421 10.7164 5.02849	
0.99	7.01843 10.615 5.06954	
1	7.054 10.5323 5.09978	
1.01	7.1042 10.4432 5.13472	
1.02	7.17462 10.3917 5.15327	
1.03	7.26836 10.3376 5.17129	
1.04	7.40183 10.2988 5.17882	
1.05	7.53759 10.276 5.18095	
1.06	7.68942 10.248 5.18447	
1.07	7.83745 10.2226 5.18614	
1.08	8.02148 10.1948 5.18912	
1.09	8.17023 10.1723 5.19237	
1.1	8.30351 10.1618 5.19242	
1.11	8.43811 10.152 5.18942	
1.12	8.56756 10.1465 5.19275	
1.13	8.70262 10.139 5.19149	
1.14	8.87628 10.14 5.19759	
1.15	9.046 10.1466 5.2012	
1.16	9.26528 10.1572 5.21039	
1.17	9.43594 10.1657 5.209	
1.18	9.65041 10.1855 5.20383	
1.19	9.84412 10.2052 5.20577	
1.2	10.0432 10.233 5.19625	
1.21	10.2662 10.2793 5.18148	
1.22	10.4872 10.3283 5.1675	
1.23	10.6982 10.3688 5.15615	
1.24	10.9338 10.3981 5.14673	
1.25	11.1292 10.4125 5.14385	
1.26	11.3383 10.4301 5.1413	
1.27	11.5187 10.4476 5.14038	
1.28	11.6846 10.4581 5.13759	
1.29	11.8242 10.4465 5.1416	
1.3	11.9227 10.424 5.14374	
1.31	12.0373 10.3898 5.14135	
1.32	12.1217 10.3516 5.13565	
1.33	12.1786 10.304 5.11653	
1.34	12.2128 10.2395 5.09254	
1.35	12.226 10.1775 5.06687	
1.36	12.227 10.1296 5.03706	
1.37	12.2345 10.0846 4.98336	
1.38	12.2424 10.0253 4.92004	
1.39	12.247 9.99024 4.85931	
1.4	12.2517 9.95757 4.77314	
1.41	12.256 9.92644 4.70535	
1.42	12.2598 9.89821 4.62734	
1.43	12.2637 9.87078 4.55081	
1.44	12.2652 9.85079 4.49463	
1.45	12.2691 9.83435 4.42991	
1.46	12.2655 9.80676 4.35111	
1.47	12.2701 9.77439 4.30391	
1.48	12.2752 9.73417 4.26662	
1.49	12.2806 9.69587 4.2175	
1.5	12.2928 9.64699 4.18415	
1.51	12.3011 9.59611 4.16313	
1.52	12.3155 9.53115 4.14799	
1.53	12.3163 9.48149 4.15136	
1.54	12.3209 9.43609 4.14918	
1.55	12.3303 9.37615 4.15162	
1.56	12.3366 9.32786 4.15692	
1.57	12.345 9.26565 4.13485	
1.58	12.3556 9.18375 4.11929	
1.59	12.3642 9.1092 4.11047	
1.6	12.376 9.02879 4.07923	
1.61	12.3846 8.95532 4.07262	
1.62	12.3966 8.8743 4.05615	
1.63	12.4134 8.79623 4.04708	
1.64	12.4415 8.72455 4.05425	
1.65	12.4606 8.65062 4.0772	
1.66	12.4943 8.58234 4.09306	
1.67	12.5148 8.51178 4.12607	
1.68	12.5262 8.42766 4.15326	
1.69	12.5458 8.34915 4.17555	
1.7	12.5545 8.28377 4.19116	
1.71	12.5732 8.21419 4.20587	
1.72	12.5903 8.14288 4.21383	
1.73	12.6017 8.07085 4.22109	
1.74	12.6123 7.99501 4.23427	
1.75	12.6306 7.91918 4.24238	
1.76	12.639 7.85668 4.24471	
1.77	12.6458 7.8059 4.22977	
1.78	12.6553 7.73716 4.22616	
1.79	12.6557 7.67376 4.22605	
1.8	12.6636 7.61489 4.23985	
1.81	12.6714 7.55588 4.25226	
1.82	12.6754 7.47499 4.28357	
1.83	12.6612 7.40071 4.33041	
1.84	12.6378 7.3207 4.37879	
1.85	12.6037 7.26731 4.41403	
1.86	12.5521 7.19904 4.46002	
1.87	12.4837 7.12939 4.50781	
1.88	12.4116 7.07537 4.53552	
1.89	12.3467 7.04078 4.553	
1.9	12.2713 7.01284 4.55959	
1.91	12.1771 6.98133 4.55804	
1.92	12.0486 6.94793 4.56186	
1.93	11.8848 6.90953 4.5554	
1.94	11.7219 6.8694 4.55696	
1.95	11.5127 6.83684 4.55831	
1.96	11.3361 6.82382 4.56006	
1.97	11.1499 6.79288 4.56842	
1.98	10.9528 6.75997 4.58694	
1.99	10.7832 6.74325 4.59652	
2	10.5955 6.73149 4.60343	
2.01	10.4443 6.7266 4.60558	
2.02	10.3168 6.72275 4.60664	
2.03	10.2085 6.72015 4.60752	
2.04	10.0917 6.71795 4.60828	
2.05	9.96545 6.72059 4.60651	
2.06	9.84164 6.71991 4.60723	
2.07	9.70854 6.72428 4.60542	
2.08	9.56719 6.72938 4.6022	
2.09	9.46186 6.74844 4.59293	
2.1	9.36437 6.77124 4.57612	
2.11	9.25604 6.79458 4.56104	
2.12	9.13093 6.80169 4.55751	
2.13	9.02329 6.8047 4.55801	
2.14	8.89443 6.81701 4.55363	
2.15	8.79372 6.82899 4.54839	
2.16	8.68573 6.83341 4.54871	
2.17	8.57674 6.84248 4.54643	
2.18	8.46956 6.85125 4.539	
2.19	8.36921 6.86031 4.53424	
2.2	8.2781 6.86537 4.5349	
2.21	8.19623 6.86456 4.53161	
2.22	8.09813 6.87012 4.52677	
2.23	8.01687 6.87482 4.52358	
2.24	7.92826 6.87709 4.50276	
2.25	7.8453 6.87704 4.47592	
2.26	7.73969 6.87437 4.4435	
2.27	7.66399 6.85578 4.39956	
2.28	7.58838 6.82499 4.36416	
2.29	7.50337 6.78788 4.31428	
2.3	7.43382 6.73922 4.2625	
2.31	7.37226 6.69102 4.2147	
2.32	7.30295 6.63667 4.17419	
2.33	7.25712 6.57517 4.1363	
2.34	7.23519 6.49472 4.11406	
2.35	7.23248 6.43305 4.10005	
2.36	7.24094 6.36144 4.11051	
2.37	7.23912 6.27905 4.1327	
2.38	7.23751 6.18127 4.1679	
2.39	7.24221 6.07457 4.21039	
2.4	7.23196 5.98727 4.23975	
2.41	7.22457 5.91247 4.2545	
2.42	7.2332 5.83518 4.26593	
2.43	7.26057 5.75458 4.2627	
2.44	7.28023 5.69368 4.23026	
2.45	7.32696 5.61835 4.20563	
2.46	7.33865 5.53448 4.20596	
2.47	7.37518 5.43472 4.20329	
2.48	7.40482 5.35549 4.21307	
2.49	7.433 5.25492 4.25101	
2.5	7.45976 5.13272 4.30819	
2.51	7.46951 5.04013 4.34727	
2.52	7.47038 4.94207 4.38771	
2.53	7.46141 4.8386 4.43192	
2.54	7.45118 4.74355 4.47082	
2.55	7.44147 4.64224 4.50796	
2.56	7.45773 4.53858 4.54056	
2.57	7.47701 4.44955 4.59103	
2.58	7.49703 4.36281 4.66169	
2.59	7.51532 4.24949 4.74737	
2.6	7.51512 4.13624 4.82744	
2.61	7.50739 4.0338 4.91679	
2.62	7.50916 3.93011 5.02592	
2.63	7.53099 3.8486 5.1182	
2.64	7.56244 3.7641 5.21528	
2.65	7.60346 3.6733 5.31779	
2.66	7.64592 3.59055 5.41572	
2.67	7.73619 3.49283 5.53661	
2.68	7.83855 3.41402 5.6422	
2.69	7.98375 3.33647 5.72413	
2.7	8.14027 3.26021 5.80306	
2.71	8.31073 3.21154 5.8645	
2.72	8.47197 3.14742 5.92182	
2.73	8.62379 3.09575 5.93897	
2.74	8.74639 3.05414 5.90023	
2.75	8.91891 2.99041 5.86117	
2.76	9.12283 2.95282 5.83769	
2.77	9.32832 2.95712 5.82418	
2.78	9.53624 2.95822 5.82056	
2.79	9.75746 2.95936 5.82448	
2.8	9.97853 2.96217 5.82629	
2.81	10.1866 2.96582 5.82588	
2.82	10.3555 2.97326 5.82164	
2.83	10.5014 3.00447 5.77547	
2.84	10.5845 3.06972 5.67471	
2.85	10.5911 3.1797 5.50212	
2.86	10.5717 3.3222 5.27415	
2.87	10.516 3.44818 5.07587	
2.88	10.4176 3.6158 4.82408	
2.89	10.3522 3.85263 4.48971	
2.9	10.2886 4.13056 4.12885	
2.91	10.2058 4.42433 3.77313	
2.92	10.1919 4.78151 3.37573	
2.93	10.1845 5.11118 3.03093	
2.94	10.1793 5.47007 2.70217	
2.95	10.1777 5.80256 2.44914	
2.96	10.1859 6.09598 2.28881	
2.97	10.1936 6.43382 2.18162	
2.98	10.2163 6.85169 2.10219	
2.99	10.249 7.26157 2.09568	
3	10.2945 7.74909 2.08942	
3.01	10.3468 8.26028 2.0977	
3.02	10.4138 8.71642 2.15421	
3.03	10.452 9.25636 2.20897	
3.04	10.4843 9.86005 2.1873	
3.05	10.4665 10.4503 2.27146	
3.06	10.4603 10.9311 2.37841	
3.07	10.4401 11.4235 2.41669	
3.08	10.4228 11.8231 2.47108	
3.09	10.3986 12.2447 2.56314	
3.1	10.3782 12.6949 2.63257	
3.11	10.3423 13.1043 2.67274	
3.12	10.3145 13.5485 2.73677	
3.13	10.2913 13.9243 2.78044	
3.14	10.2609 14.2751 2.78271	
3.15	10.2018 14.6616 2.8185	
3.16	10.1519 15.0024 2.85542	
3.17	10.1188 15.2881 2.84729	
3.18	10.1098 15.5201 2.85507	
3.19	10.1011 15.7492 2.94495	
3.2	10.0903 16.0779 3.02246	
3.21	10.0782 16.4129 3.04989	
3.22	10.058 16.7386 3.08581	
3.23	10.0206 16.9875 3.11605	
3.24	9.99138 17.2327 3.14582	
3.25	9.98521 17.4343 3.18539	
3.26	9.97319 17.6102 3.22564	
3.27	9.96372 17.7878 3.26213	
3.28	9.95862 17.9989 3.31259	
3.29	9.95419 18.1814 3.35739	
3.3	9.94692 18.4737 3.43435	
3.31	9.94526 18.6795 3.48966	
3.32	9.93997 18.8195 3.53388	
3.33	9.9377 19.0244 3.59335	
3.34	9.93462 19.2109 3.58942	
3.35	9.93194 19.3709 3.50313	
3.36	9.93057 19.5089 3.38692	
3.37	9.92887 19.6811 3.2454	
3.38	9.81793 19.9178 3.13047	
3.39	9.8246 19.9206 3.13671	
3.4	9.82988 19.9227 3.14133	
3.41	9.83507 19.9247 3.14562	
3.42	9.83845 19.9259 3.14828	
3.43	9.8404 19.9266 3.14977	
3.44	9.84162 19.927 3.1507	
3.45	9.8443 19.9269 3.14901	
3.46	9.84698 19.926 3.14444	
3.47	9.84704 19.9282 3.15243	
3.48	9.85137 19.9267 3.14458	
3.49	9.8471 19.9284 3.15325	
3.5	9.84635 19.9285 3.15415	
3.51	9.84138 19.9269 3.15052	
3.52	9.83845 19.9263 3.14971	
3.53	9.83339 19.9295 3.16521	
3.54	9.82544 19.9298 3.17136	
3.55	9.82024 19.9292 3.17232	
3.56	9.81737 19.9292 3.17386	
3.57	9.81563 19.9292 3.175	
3.58	9.81598 19.929 3.17422	
3.59	9.81534 19.9291 3.175	
3.6	9.81491 19.9289 3.17456	
3.61	9.8137 19.9287 3.17447	
3.62	9.8147 19.9292 3.17577	
3.63	9.81449 19.9163 3.12705	
3.64	9.81566 19.9165 3.12713	
3.65	9.81449 19.9163 3.12705	
3.66	9.81566 19.9165 3.12713	
3.67	9.81566 19.9165 3.12713	
3.68	9.81566 19.9165 3.12713	
3.69	9.81566 19.9161 3.12571	
3.7	9.81449 19.9163 3.12705	
3.71	9.81566 19.9161 3.12571	
3.72	9.81449 19.9163 3.12705	
3.73	9.81566 19.9165 3.12713	
3.74	9.81566 19.9165 3.12713	
3.75	9.81566 19.9161 3.12571	
3.76	9.81449 19.9159 3.12563	
3.77	9.81566 19.9165 3.12713	
3.78	9.81566 19.9165 3.12713	
3.79	9.81449 19.9163 3.12705	
3.8	9.81566 19.9165 3.12713	
3.81	9.81566 19.9165 3.12713	
3.82	9.81545 19.9164 3.12692	
3.83	9.81545 19.9164 3.12692	
3.84	9.81545 19.9164 3.12692	
3.85	9.81566 19.9161 3.12571	
3.86	9.81449 19.9163 3.12705	
3.87	9.81566 19.9165 3.12713	
3.88	9.81566 19.9165 3.12713	
3.89	9.81566 19.9161 3.12571	
3.9	9.81545 19.916 3.1255	
3.91	9.81566 19.9161 3.12571	
