# Gnuplot File : positions of 1 particle(s) Monitored
# 1st Column : time, others : particle(s) number 0 
0.01	9.81353 19.9161 3.12816	
0.02	9.81823 19.917 3.12823	
0.03	9.81705 19.9168 3.12795	
0.04	9.81705 19.9168 3.12781	
0.05	9.8147 19.9164 3.12753	
0.06	9.8147 19.9164 3.12746	
0.07	9.81353 19.9161 3.12731	
0.08	9.81353 19.9161 3.12727	
0.09	9.8147 19.9164 3.12733	
0.1	9.77859 19.1415 3.47232	
0.11	9.71545 18.7776 3.72227	
0.12	9.79655 18.6444 3.822	
0.13	9.90245 18.3101 4.05044	
0.14	10.2088 18.0639 4.14385	
0.15	10.6107 17.8394 4.23757	
0.16	10.9123 17.6876 4.31011	
0.17	11.2152 17.4739 4.47342	
0.18	11.4197 17.2852 4.50905	
0.19	11.6388 17.1472 4.50367	
0.2	11.7456 17.0056 4.49142	
0.21	11.8193 16.968 4.48824	
0.22	11.8497 16.9128 4.48533	
0.23	11.9153 16.7672 4.47643	
0.24	11.9754 16.6392 4.46568	
0.25	12.0122 16.5107 4.45525	
0.26	12.0388 16.3764 4.44826	
0.27	12.0632 16.2396 4.43937	
0.28	12.0865 16.0806 4.43206	
0.29	12.1046 15.9237 4.43437	
0.3	12.1028 15.76 4.43059	
0.31	12.0773 15.6006 4.43525	
0.32	12.0998 15.4308 4.43564	
0.33	12.1271 15.2248 4.4427	
0.34	12.1617 15.0047 4.4572	
0.35	12.1917 14.749 4.47152	
0.36	12.2121 14.5208 4.49224	
0.37	12.1862 14.2274 4.52995	
0.38	12.1063 13.9835 4.56024	
0.39	12.0064 13.7683 4.5965	
0.4	11.8885 13.6395 4.59895	
0.41	11.7446 13.5399 4.57962	
0.42	11.5354 13.4557 4.56871	
0.43	11.246 13.3829 4.51701	
0.44	10.8334 13.3188 4.45089	
0.45	10.471 13.2953 4.43245	
0.46	10.1862 13.3074 4.43069	
0.47	9.88695 13.3515 4.42343	
0.48	9.60563 13.3678 4.45592	
0.49	9.36183 13.4185 4.45567	
0.5	9.11619 13.4499 4.45281	
0.51	8.83534 13.4671 4.45735	
0.52	8.59865 13.4826 4.45706	
0.53	8.3263 13.5017 4.45872	
0.54	8.03937 13.4966 4.45999	
0.55	7.84108 13.4513 4.46605	
0.56	7.69843 13.3413 4.4542	
0.57	7.57394 13.1562 4.4359	
0.58	7.45682 12.9411 4.39155	
0.59	7.31895 12.7592 4.34572	
0.6	7.24512 12.6464 4.29307	
0.61	7.22683 12.5449 4.29944	
0.62	7.20075 12.4046 4.32301	
0.63	7.18981 12.2638 4.30813	
0.64	7.15401 12.0828 4.2848	
0.65	7.12352 11.9066 4.26414	
0.66	7.09641 11.7419 4.25605	
0.67	7.05763 11.5162 4.28287	
0.68	7.02745 11.3006 4.3249	
0.69	7.04794 11.1078 4.37448	
0.7	7.15161 10.9908 4.38048	
0.71	7.26584 10.8529 4.40396	
0.72	7.51566 10.7846 4.40004	
0.73	7.85608 10.6972 4.41545	
0.74	8.21407 10.6556 4.3965	
0.75	8.56188 10.6179 4.36286	
0.76	8.96217 10.6246 4.32856	
0.77	9.38271 10.6636 4.30709	
0.78	9.6214 10.6911 4.29519	
0.79	9.99369 10.7436 4.27701	
0.8	10.4358 10.8424 4.24468	
0.81	10.8676 10.9668 4.2046	
0.82	11.1573 11.0437 4.17834	
0.83	11.3831 11.1018 4.1699	
0.84	11.6204 11.1256 4.1692	
0.85	11.7694 11.1351 4.1658	
0.86	11.8936 11.1321 4.16501	
0.87	11.9816 11.086 4.18357	
0.88	12.0398 11.0406 4.18242	
0.89	12.1208 10.9874 4.1676	
0.9	12.1804 10.9389 4.15678	
0.91	12.2623 10.8686 4.1405	
0.92	12.327 10.7988 4.14762	
0.93	12.3675 10.7379 4.14034	
0.94	12.4097 10.6573 4.14232	
0.95	12.4298 10.556 4.16083	
0.96	12.4536 10.4498 4.18035	
0.97	12.4954 10.3568 4.1962	
0.98	12.53 10.2776 4.20474	
0.99	12.5564 10.2065 4.20584	
1	12.5678 10.1404 4.19475	
1.01	12.5862 10.0675 4.17636	
1.02	12.5981 9.98789 4.17481	
1.03	12.6104 9.90641 4.16706	
1.04	12.6249 9.82038 4.16155	
1.05	12.64 9.71194 4.15667	
1.06	12.6506 9.59776 4.15316	
1.07	12.6609 9.48065 4.15725	
1.08	12.6729 9.35455 4.18458	
1.09	12.683 9.23762 4.22256	
1.1	12.6982 9.13624 4.27053	
1.11	12.7108 9.05106 4.31667	
1.12	12.7237 8.96535 4.3606	
1.13	12.7338 8.88781 4.39551	
1.14	12.7163 8.8018 4.4168	
1.15	12.6905 8.70713 4.43121	
1.16	12.6512 8.60976 4.44254	
1.17	12.6308 8.52337 4.4248	
1.18	12.6199 8.42443 4.41461	
1.19	12.6186 8.32392 4.39321	
1.2	12.6321 8.22488 4.3864	
1.21	12.6393 8.11561 4.38366	
1.22	12.6457 8.01069 4.37525	
1.23	12.6438 7.89779 4.35946	
1.24	12.6203 7.78556 4.33407	
1.25	12.6018 7.67186 4.31703	
1.26	12.5832 7.56649 4.30852	
1.27	12.5727 7.45888 4.30468	
1.28	12.5277 7.34034 4.31359	
1.29	12.4646 7.24289 4.30809	
1.3	12.3956 7.15478 4.29844	
1.31	12.2698 7.05433 4.30538	
1.32	12.1509 6.99273 4.31557	
1.33	11.9996 6.94935 4.32768	
1.34	11.7921 6.91213 4.33952	
1.35	11.5677 6.89309 4.33863	
1.36	11.3046 6.87447 4.34167	
1.37	11.0487 6.85952 4.34521	
1.38	10.7744 6.84959 4.33926	
1.39	10.5442 6.84084 4.3401	
1.4	10.3292 6.87026 4.31822	
1.41	10.133 6.8973 4.29803	
1.42	9.93037 6.9088 4.29049	
1.43	9.71857 6.90846 4.29033	
1.44	9.50759 6.9102 4.28991	
1.45	9.30034 6.91917 4.28752	
1.46	9.09404 6.92391 4.2864	
1.47	8.91378 6.92972 4.28668	
1.48	8.71559 6.93774 4.28712	
1.49	8.53451 6.94682 4.2894	
1.5	8.38127 6.95541 4.29025	
1.51	8.2365 6.96002 4.29429	
1.52	8.05588 6.95927 4.30378	
1.53	7.90084 6.9552 4.30255	
1.54	7.78843 6.94921 4.28396	
1.55	7.68549 6.9268 4.28179	
1.56	7.58716 6.8818 4.29451	
1.57	7.46085 6.79719 4.28826	
1.58	7.38371 6.69984 4.26789	
1.59	7.34126 6.59955 4.2455	
1.6	7.31665 6.49373 4.22263	
1.61	7.31054 6.38605 4.19361	
1.62	7.29435 6.25943 4.14839	
1.63	7.27846 6.11567 4.09828	
1.64	7.26112 5.96687 4.05755	
1.65	7.25227 5.81987 4.01788	
1.66	7.2641 5.68236 4.00583	
1.67	7.27679 5.54927 4.01128	
1.68	7.28151 5.42441 4.02807	
1.69	7.27724 5.28849 4.06434	
1.7	7.26391 5.16834 4.10665	
1.71	7.25071 5.04991 4.14614	
1.72	7.24917 4.94057 4.18498	
1.73	7.25778 4.85023 4.20723	
1.74	7.2781 4.76884 4.23484	
1.75	7.28918 4.68168 4.26387	
1.76	7.28012 4.58166 4.28521	
1.77	7.27023 4.47346 4.32965	
1.78	7.26664 4.3349 4.40133	
1.79	7.28329 4.21274 4.48469	
1.8	7.31344 4.11339 4.56364	
1.81	7.36415 4.02998 4.63755	
1.82	7.44332 3.93195 4.71068	
1.83	7.50574 3.85093 4.7085	
1.84	7.57035 3.76829 4.68709	
1.85	7.64705 3.71191 4.62177	
1.86	7.73698 3.69297 4.56744	
1.87	7.84959 3.68633 4.57529	
1.88	7.98265 3.67925 4.58575	
1.89	8.13464 3.67119 4.59631	
1.9	8.30827 3.66526 4.59769	
1.91	8.48142 3.66275 4.59086	
1.92	8.69362 3.66227 4.5784	
1.93	8.94762 3.68739 4.53172	
1.94	9.21118 3.70824 4.49026	
1.95	9.48501 3.74486 4.43301	
1.96	9.73626 3.78717 4.36898	
1.97	10.0104 3.84602 4.28741	
1.98	10.2634 3.9504 4.15625	
1.99	10.5124 4.06872 4.00877	
2	10.7778 4.24335 3.80024	
2.01	11.0157 4.47899 3.53125	
2.02	11.209 4.73962 3.27469	
2.03	11.3435 5.00314 3.03156	
2.04	11.4453 5.26735 2.77504	
2.05	11.4888 5.5233 2.5745	
2.06	11.4938 5.77157 2.42021	
2.07	11.4763 6.10396 2.24679	
2.08	11.4574 6.50635 2.06397	
2.09	11.4316 7.02246 2.07706	
2.1	11.339 7.05137 2.13268	
2.11	11.3211 7.43926 2.08601	
2.12	11.2076 7.47539 2.15312	
2.13	11.2011 8.29621 2.1383	
2.14	11.1265 8.33595 2.20067	
2.15	11.0348 8.50675 2.22887	
2.16	10.9576 8.68365 2.20267	
2.17	10.8989 8.84763 2.25628	
2.18	10.8071 9.02776 2.26424	
2.19	10.7576 9.26419 2.33121	
2.2	10.6687 9.43776 2.32711	
2.21	10.6138 9.74392 2.31927	
2.22	10.5968 9.98152 2.29555	
2.23	10.567 10.1778 2.31085	
2.24	10.5242 10.3396 2.31867	
2.25	10.486 10.5034 2.26188	
2.26	10.416 10.618 2.23882	
2.27	10.3501 10.726 2.20881	
2.28	10.262 10.8853 2.15919	
2.29	10.153 11.1002 2.13499	
2.3	10.0801 11.2992 2.13503	
2.31	10.0348 11.5521 2.18641	
2.32	10.0335 11.9284 2.23794	
2.33	10.0345 12.4519 2.3313	
2.34	10.0313 13.1332 2.36347	
2.35	10.0253 13.9315 2.40564	
2.36	10.0277 14.6919 2.45979	
2.37	10.0276 15.5377 2.63573	
2.38	10.0686 16.2692 2.89587	
2.39	10.0554 16.737 3.12294	
2.4	10.0464 17.1992 3.31486	
2.41	10.0793 17.6151 3.4734	
2.42	10.0854 18.0319 3.60941	
2.43	10.071 18.5051 3.71177	
2.44	10.0749 18.9274 3.76052	
2.45	9.95426 19.4285 3.55903	
2.46	9.91565 19.7866 3.24101	
2.47	9.85427 19.9307 3.15994	
2.48	9.85691 19.9316 3.16155	
2.49	9.86937 19.9345 3.1669	
2.5	9.88192 19.935 3.16317	
2.51	9.88033 19.9373 3.17321	
2.52	9.87988 19.9377 3.17494	
2.53	9.88106 19.9382 3.17639	
2.54	9.88008 19.9382 3.17644	
2.55	9.881 19.9382 3.17633	
2.56	9.88098 19.9393 3.18065	
2.57	9.87974 19.9395 3.18203	
2.58	9.87973 19.9398 3.18346	
2.59	9.87973 19.9398 3.18346	
2.6	9.87849 19.9397 3.1834	
2.61	9.87849 19.9397 3.18339	
2.62	9.87849 19.9397 3.18339	
2.63	9.87972 19.9401 3.1849	
2.64	9.87849 19.9397 3.18339	
2.65	9.87849 19.9397 3.18339	
2.66	9.87849 19.9397 3.18339	
2.67	9.87972 19.9398 3.18345	
2.68	9.87972 19.9398 3.18345	
2.69	9.87972 19.9398 3.18345	
2.7	9.87849 19.9397 3.18339	
2.71	9.87972 19.9398 3.18345	
2.72	9.87972 19.9401 3.1849	
2.73	9.87849 19.9397 3.18339	
2.74	9.87849 19.9397 3.18339	
2.75	9.87972 19.9398 3.18345	
2.76	9.87849 19.9397 3.18339	
2.77	9.87972 19.9398 3.18345	
2.78	9.87972 19.9398 3.18345	
2.79	9.87944 19.9397 3.18331	
2.8	9.87821 19.9396 3.18325	
2.81	9.87849 19.9397 3.18339	
2.82	9.87849 19.9397 3.18339	
2.83	9.87972 19.9398 3.18345	
