# Gnuplot File : positions of 1 particle(s) Monitored
# 1st Column : time, others : particle(s) number 0 
0.01	9.87943 19.9394 3.18284	
0.02	9.8782 19.9396 3.18397	
0.03	9.8782 19.9396 3.18377	
0.04	9.8782 19.9396 3.18363	
0.05	9.87848 19.9397 3.18366	
0.06	9.87943 19.9394 3.18206	
0.07	9.88066 19.9378 3.17482	
0.08	9.88188 19.938 3.17483	
0.09	9.88066 19.9378 3.17475	
0.1	9.83803 19.3006 3.39644	
0.11	9.81128 19.1342 3.47915	
0.12	9.86698 18.859 3.61049	
0.13	9.9846 18.5617 3.87559	
0.14	10.2061 18.1761 3.9459	
0.15	10.5473 17.8988 4.08232	
0.16	10.8353 17.702 4.20036	
0.17	11.0988 17.5592 4.34419	
0.18	11.3145 17.4445 4.36193	
0.19	11.464 17.2463 4.35636	
0.2	11.6074 17.1162 4.36839	
0.21	11.8087 17.0431 4.44687	
0.22	11.9752 16.9187 4.56595	
0.23	12.0319 16.7538 4.64565	
0.24	12.088 16.6039 4.73474	
0.25	12.1436 16.4135 4.83988	
0.26	12.1878 16.2176 4.90388	
0.27	12.2333 16.0074 4.90877	
0.28	12.2872 15.7518 4.88663	
0.29	12.3028 15.6567 4.89563	
0.3	12.332 15.4204 4.90509	
0.31	12.3221 15.175 4.92334	
0.32	12.3079 14.9522 4.94488	
0.33	12.3254 14.7364 4.97193	
0.34	12.3536 14.5164 4.99905	
0.35	12.3748 14.3941 5.00797	
0.36	12.3847 14.3897 5.02205	
0.37	12.3612 14.4008 5.0747	
0.38	12.3668 14.3792 5.19572	
0.39	12.3873 14.2378 5.39128	
0.4	12.4182 14.0329 5.48164	
0.41	12.4276 13.8018 5.52389	
0.42	12.4444 13.6049 5.56532	
0.43	12.4132 13.4103 5.6051	
0.44	12.3317 13.2308 5.64533	
0.45	12.1763 13.0655 5.67761	
0.46	11.973 12.9712 5.67328	
0.47	11.6944 12.9312 5.66791	
0.48	11.3905 12.9065 5.67304	
0.49	11.0708 12.9045 5.67748	
0.5	10.6792 12.8812 5.68246	
0.51	10.2893 12.8599 5.68404	
0.52	9.95495 12.8544 5.68622	
0.53	9.64207 12.8522 5.69292	
0.54	9.34214 12.859 5.69226	
0.55	9.08411 12.841 5.71693	
0.56	8.82063 12.8406 5.73596	
0.57	8.55036 12.8347 5.74912	
0.58	8.24624 12.8312 5.79197	
0.59	8.19975 12.8469 5.84873	
0.6	8.06358 12.835 5.86766	
0.61	7.94249 12.7966 5.89012	
0.62	7.87552 12.7719 5.92333	
0.63	7.81424 12.7311 5.92856	
0.64	7.79803 12.6471 5.95633	
0.65	7.80353 12.6013 5.93342	
0.66	7.88538 12.658 5.90776	
0.67	7.95203 12.8808 5.83247	
0.68	7.97045 13.0101 5.75142	
0.69	8.02794 13.4815 5.59558	
0.7	8.07095 13.8213 5.35229	
0.71	8.03789 13.8338 5.23436	
0.72	7.94838 13.9244 5.03786	
0.73	7.97818 14.1631 4.67485	
0.74	7.95448 14.1854 4.35906	
0.75	7.86072 13.9938 4.16543	
0.76	7.77487 13.7314 4.05406	
0.77	7.73456 13.4854 4.05009	
0.78	7.71285 13.3469 4.05993	
0.79	7.67114 13.1202 4.09082	
0.8	7.60346 12.8888 4.08984	
0.81	7.51672 12.6149 4.07912	
0.82	7.42543 12.3708 4.04016	
0.83	7.37323 12.1337 4.01831	
0.84	7.32723 11.8977 4.00057	
0.85	7.28899 11.7451 4.00192	
0.86	7.26567 11.6129 3.98746	
0.87	7.25033 11.5154 3.97198	
0.88	7.256 11.435 3.98159	
0.89	7.26021 11.3377 3.9915	
0.9	7.25812 11.239 4.02523	
0.91	7.2757 11.1376 4.06112	
0.92	7.31796 11.0639 4.0879	
0.93	7.39226 11.0068 4.10739	
0.94	7.51792 10.9582 4.11964	
0.95	7.70378 10.9269 4.13215	
0.96	7.94261 10.9036 4.1419	
0.97	8.21195 10.8903 4.16027	
0.98	8.469 10.8939 4.17813	
0.99	8.70519 10.9091 4.21301	
1	8.90312 10.9107 4.24031	
1.01	9.11974 10.9221 4.26144	
1.02	9.30912 10.932 4.28384	
1.03	9.5151 10.9375 4.30807	
1.04	9.70606 10.943 4.32584	
1.05	9.8841 10.9493 4.34014	
1.06	10.0475 10.9531 4.34446	
1.07	10.2399 10.9641 4.34586	
1.08	10.4722 10.9875 4.34081	
1.09	10.6726 11.0014 4.33891	
1.1	10.8518 11.012 4.33843	
1.11	11.0136 11.0174 4.33944	
1.12	11.1586 11.0262 4.33253	
1.13	11.2835 11.0228 4.32629	
1.14	11.47 11.0295 4.32891	
1.15	11.641 11.035 4.32814	
1.16	11.8227 11.0222 4.33254	
1.17	11.9518 10.9915 4.34875	
1.18	12.0668 10.9611 4.35359	
1.19	12.1685 10.9295 4.35832	
1.2	12.2406 10.8769 4.3642	
1.21	12.2945 10.8072 4.3618	
1.22	12.3368 10.7023 4.37875	
1.23	12.3563 10.5909 4.38747	
1.24	12.3741 10.4913 4.41201	
1.25	12.3966 10.3902 4.41547	
1.26	12.4162 10.3074 4.40603	
1.27	12.4281 10.2406 4.37978	
1.28	12.4385 10.1701 4.34316	
1.29	12.4496 10.0964 4.29653	
1.3	12.4572 10.0428 4.2411	
1.31	12.5 9.99445 4.1514	
1.32	12.5247 9.93273 4.09513	
1.33	12.5368 9.86281 4.05299	
1.34	12.5504 9.77009 4.02666	
1.35	12.5631 9.68328 4.00024	
1.36	12.579 9.57478 3.99271	
1.37	12.5948 9.47886 4.00621	
1.38	12.6104 9.37203 4.02042	
1.39	12.6251 9.2717 4.03714	
1.4	12.6422 9.16436 4.04767	
1.41	12.6602 9.05156 4.05728	
1.42	12.6746 8.95224 4.05598	
1.43	12.6902 8.85512 4.06051	
1.44	12.7007 8.77416 4.06323	
1.45	12.7142 8.69241 4.06118	
1.46	12.7319 8.58808 4.07454	
1.47	12.7461 8.49183 4.09697	
1.48	12.7517 8.38895 4.09894	
1.49	12.7512 8.29436 4.11354	
1.5	12.758 8.1918 4.13354	
1.51	12.7496 8.0876 4.15441	
1.52	12.7443 7.95689 4.19375	
1.53	12.7332 7.86733 4.22695	
1.54	12.7046 7.77439 4.2553	
1.55	12.6727 7.69428 4.27123	
1.56	12.6337 7.61158 4.30049	
1.57	12.5701 7.51058 4.33072	
1.58	12.5036 7.42468 4.3572	
1.59	12.4312 7.33911 4.3856	
1.6	12.3272 7.25972 4.40885	
1.61	12.2225 7.1928 4.4375	
1.62	12.0826 7.11796 4.46779	
1.63	11.9084 7.04961 4.49136	
1.64	11.7288 7.00254 4.51302	
1.65	11.5144 6.97337 4.50721	
1.66	11.2867 6.95073 4.50247	
1.67	11.0506 6.93545 4.49902	
1.68	10.8533 6.93001 4.49808	
1.69	10.6659 6.93577 4.49182	
1.7	10.5066 6.93866 4.48507	
1.71	10.3235 6.94327 4.4815	
1.72	10.1649 6.95777 4.46951	
1.73	9.99847 6.96045 4.46747	
1.74	9.8386 6.95967 4.46832	
1.75	9.68998 6.96029 4.46913	
1.76	9.55785 6.97457 4.46012	
1.77	9.43555 7.00783 4.44116	
1.78	9.28119 7.04748 4.41953	
1.79	9.15066 7.06434 4.41039	
1.8	9.00884 7.07346 4.40849	
1.81	8.868 7.07908 4.40918	
1.82	8.69616 7.08627 4.4102	
1.83	8.52716 7.09504 4.41098	
1.84	8.3654 7.09955 4.41369	
1.85	8.2142 7.10967 4.4151	
1.86	8.07915 7.11861 4.41448	
1.87	7.95463 7.12833 4.41547	
1.88	7.82838 7.13011 4.42386	
1.89	7.70294 7.13102 4.42528	
1.9	7.59297 7.12838 4.41737	
1.91	7.49954 7.10152 4.39776	
1.92	7.42285 7.0684 4.37938	
1.93	7.35323 7.0254 4.36431	
1.94	7.30012 6.98036 4.34819	
1.95	7.25379 6.90977 4.33195	
1.96	7.21591 6.84057 4.32537	
1.97	7.1886 6.76382 4.32875	
1.98	7.16908 6.67873 4.31713	
1.99	7.15679 6.59584 4.29649	
2	7.14523 6.50051 4.28054	
2.01	7.15155 6.41705 4.25786	
2.02	7.15947 6.33464 4.23521	
2.03	7.17733 6.26224 4.21739	
2.04	7.18676 6.18881 4.20973	
2.05	7.19406 6.10073 4.19822	
2.06	7.20046 5.99882 4.20825	
2.07	7.19865 5.89996 4.22439	
2.08	7.1965 5.79611 4.2298	
2.09	7.20449 5.71503 4.23991	
2.1	7.22373 5.64124 4.2698	
2.11	7.24423 5.56701 4.29302	
2.12	7.25405 5.48637 4.32376	
2.13	7.2559 5.41598 4.35619	
2.14	7.25621 5.32953 4.39345	
2.15	7.25775 5.25351 4.40474	
2.16	7.25798 5.17715 4.40733	
2.17	7.27608 5.08634 4.4044	
2.18	7.28762 5.00658 4.40131	
2.19	7.29704 4.91442 4.38827	
2.2	7.31661 4.83099 4.37533	
2.21	7.33585 4.75256 4.36373	
2.22	7.36674 4.67422 4.35051	
2.23	7.3891 4.61048 4.34468	
2.24	7.41173 4.54482 4.35388	
2.25	7.42636 4.47366 4.37276	
2.26	7.4662 4.39088 4.41381	
2.27	7.49961 4.31116 4.46568	
2.28	7.52355 4.24615 4.50442	
2.29	7.56763 4.18353 4.54884	
2.3	7.60409 4.13322 4.58355	
2.31	7.66793 4.08648 4.6001	
2.32	7.75424 4.04959 4.62087	
2.33	7.8719 4.0349 4.62626	
2.34	8.00956 4.02405 4.59769	
2.35	8.15013 4.01387 4.56124	
2.36	8.27984 4.00439 4.52231	
2.37	8.4384 3.99426 4.47554	
2.38	8.64815 3.98558 4.42494	
2.39	8.83948 3.98707 4.38844	
2.4	9.00971 3.99073 4.35806	
2.41	9.1716 3.99625 4.33298	
2.42	9.30521 4.00647 4.29184	
2.43	9.47637 4.0166 4.23596	
2.44	9.60885 4.02815 4.19403	
2.45	9.76649 4.0529 4.13005	
2.46	9.91579 4.09632 4.0673	
2.47	10.0652 4.15779 3.97795	
2.48	10.186 4.23093 3.88741	
2.49	10.285 4.33048 3.77458	
2.5	10.3827 4.45934 3.62779	
2.51	10.46 4.58585 3.48383	
2.52	10.5349 4.7099 3.34222	
2.53	10.5898 4.8614 3.17462	
2.54	10.6503 5.01066 3.00883	
2.55	10.7035 5.1397 2.86886	
2.56	10.7198 5.27765 2.73546	
2.57	10.7223 5.42539 2.595	
2.58	10.7183 5.54729 2.48227	
2.59	10.6924 5.6724 2.36698	
2.6	10.6779 5.76753 2.30331	
2.61	10.6663 5.90492 2.23213	
2.62	10.6573 6.0352 2.2291	
2.63	10.6363 6.21107 2.16635	
2.64	10.6384 6.3431 2.16644	
2.65	10.6544 6.51338 2.14754	
2.66	10.6571 6.67042 2.09832	
2.67	10.6907 6.84409 2.08534	
2.68	10.6707 7.07438 2.0275	
2.69	10.6836 7.33647 2.01563	
2.7	10.6701 7.69828 1.96885	
2.71	10.6836 8.01821 1.91521	
2.72	10.6635 8.38754 1.91553	
2.73	10.6345 8.89171 1.82402	
2.74	10.6144 9.313 1.79652	
2.75	10.5982 9.81452 1.75791	
2.76	10.5721 10.3074 1.64159	
2.77	10.5498 10.6474 1.56798	
2.78	10.5333 10.9825 1.51748	
2.79	10.5203 11.2748 1.46586	
2.8	10.5164 11.5189 1.47758	
2.81	10.5091 11.7486 1.47021	
2.82	10.4972 11.9805 1.47197	
2.83	10.5045 12.221 1.45283	
2.84	10.4967 12.4749 1.4203	
2.85	10.5018 12.6894 1.41461	
2.86	10.4954 12.8909 1.42577	
2.87	10.4872 13.0937 1.44264	
2.88	10.4767 13.2449 1.48029	
2.89	10.4682 13.3255 1.54917	
2.9	10.4687 13.4426 1.55279	
2.91	10.4558 13.6205 1.55654	
2.92	10.4405 13.9013 1.57602	
2.93	10.4287 14.1783 1.58547	
2.94	10.4097 14.4343 1.6524	
2.95	10.3922 14.666 1.68599	
2.96	10.3619 14.9367 1.77437	
2.97	10.345 15.2555 1.81684	
2.98	10.334 15.5062 1.91936	
2.99	10.3388 15.7699 1.96661	
3	10.3251 16.0387 2.00024	
3.01	10.3097 16.2981 2.048	
3.02	10.2963 16.5744 2.1056	
3.03	10.2782 16.8413 2.15629	
3.04	10.2622 17.0528 2.19848	
3.05	10.2505 17.2988 2.27976	
3.06	10.2407 17.5136 2.34535	
3.07	10.2326 17.5861 2.34911	
3.08	10.227 17.6711 2.33928	
3.09	10.2208 17.717 2.31959	
3.1	10.218 17.7136 2.30681	
3.11	10.2057 17.6995 2.33251	
3.12	10.1957 17.6309 2.43654	
3.13	10.1997 17.5905 2.60009	
3.14	10.1992 17.5665 2.76178	
3.15	10.2004 17.568 2.83588	
3.16	10.1999 17.5815 2.86533	
3.17	10.1994 17.593 2.8861	
3.18	10.2006 17.5987 2.90258	
3.19	10.1913 17.6081 2.91609	
3.2	10.1918 17.6013 2.95669	
3.21	10.1916 17.5642 2.99798	
3.22	10.1925 17.547 3.02226	
3.23	10.1741 17.5215 3.11465	
3.24	10.1623 17.5585 3.37463	
3.25	10.1592 17.5429 3.54888	
3.26	10.1393 17.5241 3.66699	
3.27	10.1281 17.5562 3.77172	
3.28	10.1227 17.6833 3.81346	
3.29	10.1171 17.8174 3.83444	
3.3	10.1109 17.9724 3.8721	
3.31	10.1064 18.1285 3.91249	
3.32	10.1009 18.2979 3.95111	
3.33	10.0932 18.5041 3.96522	
3.34	10.0878 18.7272 3.91624	
3.35	10.0659 18.9113 3.81127	
3.36	10.0196 19.1023 3.72326	
3.37	9.99457 19.2818 3.60295	
3.38	9.98762 19.4147 3.50538	
3.39	9.98166 19.5304 3.37969	
3.4	9.96271 19.6704 3.2535	
3.41	9.90294 19.7535 3.20213	
3.42	9.85294 19.9306 3.15869	
3.43	9.85319 19.9307 3.15886	
3.44	9.85294 19.9306 3.15869	
3.45	9.85294 19.9302 3.15725	
3.46	9.85414 19.9293 3.15302	
3.47	9.85294 19.9306 3.15869	
3.48	9.85414 19.9308 3.15876	
3.49	9.85414 19.9297 3.15445	
3.5	9.85294 19.9306 3.15869	
3.51	9.85173 19.9308 3.16006	
3.52	9.85294 19.931 3.16013	
3.53	9.85294 19.9306 3.15869	
3.54	9.85294 19.9317 3.163	
3.55	9.85268 19.9334 3.17003	
3.56	9.85293 19.9345 3.17452	
3.57	9.85293 19.9352 3.1774	
3.58	9.85293 19.9352 3.1774	
3.59	9.85416 19.9357 3.17891	
3.6	9.85268 19.9355 3.17867	
3.61	9.85268 19.9358 3.18012	
3.62	9.85293 19.9359 3.18029	
3.63	9.85293 19.9356 3.17885	
3.64	9.85268 19.9358 3.18012	
3.65	9.85293 19.9359 3.18029	
3.66	9.85293 19.9359 3.18029	
3.67	9.85268 19.9358 3.18012	
3.68	9.85293 19.9359 3.18029	
3.69	9.85268 19.9358 3.18012	
3.7	9.85293 19.9359 3.18029	
3.71	9.85268 19.9355 3.17867	
3.72	9.85268 19.9358 3.18012	
3.73	9.85268 19.9355 3.17867	
3.74	9.85171 19.9357 3.18022	
3.75	9.85268 19.9355 3.17867	
3.76	9.85171 19.9357 3.18022	
3.77	9.85268 19.9358 3.18012	
