# Gnuplot File : positions of 1 particle(s) Monitored
# 1st Column : time, others : particle(s) number 0 
0.01	9.98693 19.9504 3.20398	
0.02	9.92059 19.9448 3.19014	
0.03	9.90539 19.9424 3.18446	
0.04	9.8829 19.9383 3.17616	
0.05	9.86881 19.9343 3.16598	
0.06	9.85675 19.9315 3.16066	
0.07	9.85529 19.9307 3.15818	
0.08	9.85065 19.9299 3.15724	
0.09	9.85039 19.9298 3.15704	
0.1	9.8516 19.93 3.15709	
0.11	9.8516 19.93 3.15707	
0.12	9.85185 19.9297 3.1558	
0.13	9.85946 19.893 3.19922	
0.14	9.79507 17.7697 4.94176	
0.15	9.91553 16.882 5.92649	
0.16	9.8847 17.1932 5.28807	
0.17	9.86351 17.0095 5.10222	
0.18	9.88848 16.4885 5.0698	
0.19	9.82161 15.9682 5.00472	
0.2	9.57226 15.5562 5.01674	
0.21	9.1426 15.2983 5.08679	
0.22	8.67637 15.2273 5.19508	
0.23	8.25528 15.2188 5.20414	
0.24	7.88361 15.266 5.14781	
0.25	7.52777 15.3269 5.1201	
0.26	7.23457 15.3848 5.06729	
0.27	7.07454 15.4464 4.91243	
0.28	7.0124 15.5577 4.62904	
0.29	6.97144 15.6491 4.46683	
0.3	6.91547 15.7751 4.30944	
0.31	6.83325 15.9581 4.02567	
0.32	6.68202 16.0937 3.89067	
0.33	6.53847 16.2454 3.8513	
0.34	6.4377 16.3961 3.67933	
0.35	6.36983 16.6056 3.41776	
0.36	6.30458 16.8022 3.17212	
0.37	6.25393 16.9097 2.9867	
0.38	6.23884 16.9896 2.88301	
0.39	6.2435 17.027 2.82594	
0.4	6.26729 16.8919 2.86967	
0.41	6.30511 16.4576 3.30228	
0.42	6.30787 16.046 3.98662	
0.43	6.32811 15.7852 4.41343	
0.44	6.38826 15.5122 4.86613	
0.45	6.53967 15.1631 5.47266	
0.46	6.84088 14.9656 5.81961	
0.47	7.1026 15.1204 5.78648	
0.48	7.25248 15.5068 5.57439	
0.49	7.39008 16.0306 5.01715	
0.5	7.49088 16.5508 4.38028	
0.51	7.55318 16.9229 4.03577	
0.52	7.60291 17.1966 3.71497	
0.53	7.62454 17.4089 3.40948	
0.54	7.65172 17.6527 3.25124	
0.55	7.68842 17.8996 3.05549	
0.56	7.69406 18.0133 2.86395	
0.57	7.69388 17.9861 2.88923	
0.58	7.66362 17.4929 3.41783	
0.59	7.58954 16.6725 4.47235	
0.6	7.52649 16.0191 5.42493	
0.61	7.47814 15.7422 6.04503	
0.62	7.48405 15.5233 6.3176	
0.63	7.52646 15.465 6.48915	
0.64	7.58182 15.5113 6.5147	
0.65	7.66133 15.6509 6.7348	
0.66	7.74079 15.6426 7.09011	
0.67	7.7385 15.3034 6.82033	
0.68	7.65879 14.8698 6.26394	
0.69	7.56953 14.5981 5.87001	
0.7	7.53718 14.5004 5.59795	
0.71	7.55669 14.6481 5.22947	
0.72	7.58371 14.9113 4.91726	
0.73	7.57822 15.1225 4.82885	
0.74	7.56231 15.3302 4.77999	
0.75	7.57144 15.546 4.68127	
0.76	7.5674 15.7147 4.48676	
0.77	7.6004 15.9204 4.22961	
0.78	7.62083 16.0261 4.07121	
0.79	7.65215 16.1779 3.74334	
0.8	7.69681 16.3775 3.28799	
0.81	7.7367 16.5132 3.04376	
0.82	7.75251 16.5208 3.03462	
0.83	7.77513 16.5564 3.218	
0.84	7.81462 16.5357 3.60661	
0.85	7.87728 16.5447 4.00178	
0.86	7.94434 16.5341 4.44422	
0.87	8.02972 16.5884 4.85389	
0.88	8.10342 16.6195 5.2099	
0.89	8.20009 16.6317 5.56905	
0.9	8.30717 16.636 5.84659	
0.91	8.45134 16.6543 6.09396	
0.92	8.5881 16.6778 6.27537	
0.93	8.69964 16.6727 6.40831	
0.94	8.79794 16.689 6.51828	
0.95	8.9062 16.7409 6.63863	
0.96	9.03206 16.775 6.71298	
0.97	9.17487 16.7801 6.74235	
0.98	9.34847 16.7838 6.75771	
0.99	9.48983 16.7785 6.76177	
1	9.61536 16.7858 6.76524	
1.01	9.74716 16.8 6.76948	
1.02	9.88017 16.8157 6.77394	
1.03	10.0384 16.8326 6.77807	
1.04	10.1988 16.8508 6.78069	
1.05	10.3499 16.8662 6.78625	
1.06	10.4846 16.8769 6.79038	
1.07	10.6055 16.894 6.79493	
1.08	10.7142 16.9169 6.80026	
1.09	10.7921 16.9451 6.80703	
1.1	10.8521 16.9712 6.81035	
1.11	10.9152 16.9872 6.81441	
1.12	10.9856 16.9961 6.81532	
1.13	11.0587 17.0081 6.81236	
1.14	11.1489 17.0289 6.79708	
1.15	11.224 17.0484 6.79538	
1.16	11.3079 17.0609 6.77675	
1.17	11.3731 17.0822 6.74827	
1.18	11.4255 17.0994 6.72193	
1.19	11.4807 17.1231 6.69578	
1.2	11.5416 17.1267 6.66316	
1.21	11.6115 17.1172 6.63176	
1.22	11.6701 17.1089 6.612	
1.23	11.7212 17.0891 6.57575	
1.24	11.764 17.073 6.54536	
1.25	11.7974 17.0461 6.51002	
1.26	11.8206 17.0186 6.47632	
1.27	11.8383 16.9754 6.44846	
1.28	11.8523 16.9315 6.41495	
1.29	11.8578 16.906 6.37823	
1.3	11.8711 16.8818 6.33986	
1.31	11.8894 16.8553 6.29709	
1.32	11.9192 16.8344 6.25855	
1.33	11.9615 16.8122 6.21246	
1.34	12.0164 16.79 6.16635	
1.35	12.0746 16.7707 6.12022	
1.36	12.1392 16.7505 6.07232	
1.37	12.2083 16.7242 6.01399	
1.38	12.2853 16.7003 5.9552	
1.39	12.3526 16.6784 5.90094	
1.4	12.4188 16.6557 5.84655	
1.41	12.4699 16.6364 5.80119	
1.42	12.5095 16.6304 5.78323	
1.43	12.5397 16.6267 5.75342	
1.44	12.554 16.623 5.74573	
1.45	12.5592 16.6107 5.73096	
1.46	12.5624 16.6109 5.71358	
1.47	12.5654 16.5974 5.70039	
1.48	12.5672 16.5944 5.69025	
1.49	12.5699 16.5856 5.67702	
1.5	12.5718 16.5807 5.66548	
1.51	12.5723 16.5777 5.65942	
1.52	12.575 16.5715 5.64986	
1.53	12.5753 16.5694 5.6443	
1.54	12.5759 16.5656 5.63792	
1.55	12.5739 16.5688 5.6337	
1.56	12.576 16.5678 5.62529	
1.57	12.5669 16.6106 5.61759	
1.58	12.5468 16.6838 5.61759	
1.59	12.5166 16.7841 5.61797	
1.6	12.4833 16.8973 5.62211	
1.61	12.4534 17.0069 5.62559	
1.62	12.4255 17.1343 5.63193	
1.63	12.3962 17.2405 5.62717	
1.64	12.3738 17.3167 5.59006	
1.65	12.3578 17.378 5.51885	
1.66	12.3462 17.4352 5.4115	
1.67	12.3422 17.455 5.26195	
1.68	12.3518 17.4295 5.06876	
1.69	12.3819 17.3618 4.86128	
1.7	12.4209 17.292 4.67167	
1.71	12.4563 17.2276 4.49957	
1.72	12.4855 17.1814 4.39349	
1.73	12.5109 17.1379 4.31596	
1.74	12.521 17.0966 4.27066	
1.75	12.5305 17.061 4.24888	
1.76	12.5387 17.0221 4.24191	
1.77	12.5507 16.9721 4.23348	
1.78	12.5649 16.9163 4.22434	
1.79	12.579 16.8596 4.21338	
1.8	12.594 16.7916 4.19993	
1.81	12.6109 16.7186 4.18775	
1.82	12.6313 16.6321 4.16934	
1.83	12.6499 16.5752 4.14535	
1.84	12.6675 16.5244 4.12347	
1.85	12.685 16.4685 4.10191	
1.86	12.7115 16.4028 4.09157	
1.87	12.7333 16.3328 4.08601	
1.88	12.7603 16.263 4.07858	
1.89	12.785 16.1872 4.07268	
1.9	12.8117 16.1168 4.06456	
1.91	12.8342 16.0505 4.05723	
1.92	12.8476 15.9998 4.05148	
1.93	12.8616 15.9445 4.04716	
1.94	12.8737 15.8993 4.04213	
1.95	12.8875 15.8454 4.04143	
1.96	12.9074 15.7923 4.0411	
1.97	12.9239 15.7268 4.03912	
1.98	12.9488 15.6419 4.03919	
1.99	12.9825 15.5464 4.03829	
2	13.022 15.4188 4.03832	
2.01	13.0638 15.3058 4.04489	
2.02	13.101 15.2015 4.0505	
2.03	13.1524 15.0779 4.05678	
2.04	13.197 14.959 4.06437	
2.05	13.2373 14.8389 4.07329	
2.06	13.2729 14.719 4.08603	
2.07	13.306 14.6089 4.097	
2.08	13.3559 14.475 4.11163	
2.09	13.3914 14.3598 4.12556	
2.1	13.4245 14.2318 4.14014	
2.11	13.4613 14.0984 4.15709	
2.12	13.4951 13.9663 4.17642	
2.13	13.527 13.8442 4.19454	
2.14	13.5643 13.7037 4.21062	
2.15	13.595 13.5808 4.22735	
2.16	13.6238 13.4763 4.2364	
2.17	13.6425 13.3767 4.23333	
2.18	13.6527 13.2949 4.21072	
2.19	13.642 13.2209 4.17612	
2.2	13.6186 13.1677 4.12628	
2.21	13.5662 13.1315 4.07439	
2.22	13.512 13.0904 4.00925	
2.23	13.4704 13.0562 3.9541	
2.24	13.413 13.0264 3.91365	
2.25	13.3754 12.9977 3.86692	
2.26	13.324 12.9658 3.81615	
2.27	13.2877 12.9504 3.78122	
2.28	13.2494 12.9413 3.74777	
2.29	13.2212 12.9288 3.70429	
2.3	13.1824 12.922 3.67585	
2.31	13.1318 12.9147 3.65246	
2.32	13.0745 12.9151 3.63612	
2.33	13.0021 12.928 3.62944	
2.34	12.8967 12.9474 3.62247	
2.35	12.7762 12.9751 3.61123	
2.36	12.6542 13.0171 3.60307	
2.37	12.5184 13.0691 3.58141	
2.38	12.3494 13.1541 3.56431	
2.39	12.1979 13.2442 3.54809	
2.4	12.0762 13.3166 3.53518	
2.41	11.9804 13.3833 3.52642	
2.42	11.8885 13.4393 3.51924	
2.43	11.7791 13.4966 3.50645	
2.44	11.6844 13.5461 3.49756	
2.45	11.5948 13.5965 3.48783	
2.46	11.4959 13.6357 3.4803	
2.47	11.3886 13.6875 3.47351	
2.48	11.2945 13.7346 3.46606	
2.49	11.2032 13.7818 3.4587	
2.5	11.0828 13.8454 3.45228	
2.51	10.9747 13.9099 3.44475	
2.52	10.868 13.962 3.43283	
2.53	10.7617 14.0163 3.42482	
2.54	10.6665 14.0686 3.42141	
2.55	10.5773 14.1196 3.41396	
2.56	10.4945 14.16 3.40709	
2.57	10.428 14.1965 3.40179	
2.58	10.3611 14.2266 3.39304	
2.59	10.2791 14.2615 3.38313	
2.6	10.2162 14.3093 3.37603	
2.61	10.1526 14.3521 3.356	
2.62	10.0784 14.4083 3.32623	
2.63	10.0129 14.4672 3.30319	
2.64	9.93286 14.5311 3.27699	
2.65	9.84769 14.5922 3.2564	
2.66	9.75829 14.6643 3.24807	
2.67	9.66374 14.7429 3.24028	
2.68	9.57616 14.8155 3.23146	
2.69	9.49251 14.8864 3.23077	
2.7	9.41734 14.9602 3.22427	
2.71	9.35597 15.0233 3.22141	
2.72	9.29477 15.0998 3.20951	
2.73	9.23019 15.1746 3.19077	
2.74	9.17715 15.2401 3.1518	
2.75	9.11562 15.2939 3.10634	
2.76	9.05113 15.3272 3.06556	
2.77	8.96915 15.3541 3.02959	
2.78	8.87345 15.3613 2.99567	
2.79	8.75548 15.3713 2.97431	
2.8	8.61909 15.3809 2.95764	
2.81	8.4809 15.3863 2.9403	
2.82	8.35128 15.3966 2.9198	
2.83	8.23198 15.3987 2.90847	
2.84	8.12955 15.3945 2.90044	
2.85	8.03359 15.3756 2.8981	
2.86	7.95757 15.3423 2.89485	
2.87	7.90524 15.3115 2.89365	
2.88	7.87082 15.2827 2.89121	
2.89	7.85626 15.239 2.88835	
2.9	7.84512 15.1946 2.88564	
2.91	7.83591 15.1515 2.88579	
2.92	7.82467 15.1029 2.88595	
2.93	7.80725 15.0551 2.88486	
2.94	7.78195 15.0094 2.88565	
2.95	7.75876 14.9513 2.88453	
2.96	7.72759 14.9001 2.88387	
2.97	7.6882 14.8529 2.88728	
2.98	7.6538 14.8106 2.8913	
2.99	7.61123 14.7751 2.8942	
3	7.56738 14.7429 2.89079	
3.01	7.52396 14.7127 2.89275	
3.02	7.47785 14.6836 2.89612	
3.03	7.44948 14.6488 2.89545	
3.04	7.42197 14.6102 2.89901	
3.05	7.4039 14.5534 2.90395	
3.06	7.39277 14.5051 2.90655	
3.07	7.3827 14.4567 2.9092	
3.08	7.37067 14.3972 2.91227	
3.09	7.35964 14.344 2.91667	
3.1	7.34604 14.2782 2.91895	
3.11	7.33531 14.2251 2.92397	
3.12	7.32351 14.1721 2.92935	
3.13	7.31683 14.1283 2.93163	
3.14	7.30858 14.0927 2.93812	
3.15	7.30185 14.0552 2.94175	
3.16	7.29207 14.0191 2.9472	
3.17	7.29327 13.991 2.94957	
3.18	7.29285 13.9629 2.95187	
3.19	7.29179 13.9301 2.9559	
3.2	7.30351 13.8933 2.95728	
3.21	7.30796 13.8531 2.96045	
3.22	7.31599 13.8021 2.96687	
3.23	7.31522 13.7414 2.97412	
3.24	7.31495 13.6687 2.98104	
3.25	7.30738 13.5868 2.99037	
3.26	7.30309 13.5049 3.00163	
3.27	7.28764 13.4196 3.01356	
3.28	7.2747 13.3232 3.02844	
3.29	7.26179 13.2434 3.04101	
3.3	7.24552 13.1593 3.05606	
3.31	7.23782 13.0834 3.06779	
3.32	7.22482 13.0159 3.08202	
3.33	7.2172 12.9458 3.09408	
3.34	7.2087 12.8768 3.10793	
3.35	7.20898 12.8102 3.1186	
3.36	7.20801 12.7407 3.13439	
3.37	7.20856 12.6863 3.14578	
3.38	7.21255 12.6314 3.15691	
3.39	7.21899 12.5751 3.16746	
3.4	7.22797 12.5193 3.17918	
3.41	7.24689 12.4649 3.20455	
3.42	7.26932 12.4258 3.22057	
3.43	7.28379 12.3692 3.2372	
3.44	7.31369 12.3181 3.25185	
3.45	7.33854 12.2695 3.26608	
3.46	7.37075 12.1984 3.28445	
3.47	7.40532 12.1242 3.30664	
3.48	7.4458 12.0381 3.32515	
3.49	7.4988 11.9572 3.3423	
3.5	7.57471 11.8687 3.35042	
3.51	7.66441 11.7802 3.3626	
3.52	7.7473 11.6872 3.37714	
3.53	7.83317 11.5937 3.39228	
3.54	7.91294 11.5043 3.41309	
3.55	7.98838 11.4181 3.4262	
3.56	8.05556 11.3271 3.44021	
3.57	8.12403 11.2391 3.445	
3.58	8.18701 11.1524 3.45067	
3.59	8.243 11.0749 3.44767	
3.6	8.33072 10.9853 3.4505	
3.61	8.42458 10.9239 3.45099	
3.62	8.53408 10.8698 3.45926	
3.63	8.66102 10.8314 3.46347	
3.64	8.7951 10.805 3.46893	
3.65	8.94751 10.7948 3.47019	
3.66	9.11742 10.7839 3.47031	
3.67	9.28254 10.7803 3.46911	
3.68	9.44684 10.7863 3.47307	
3.69	9.60716 10.8047 3.47687	
3.7	9.77309 10.8362 3.49627	
3.71	9.91142 10.8649 3.50396	
3.72	10.0538 10.8935 3.50693	
3.73	10.203 10.9333 3.50855	
3.74	10.3323 10.9939 3.51683	
3.75	10.4327 11.0568 3.5301	
3.76	10.5212 11.1286 3.53164	
3.77	10.5899 11.2046 3.52849	
3.78	10.6562 11.2895 3.51678	
3.79	10.721 11.3822 3.49538	
3.8	10.7865 11.4778 3.48102	
3.81	10.8511 11.573 3.46601	
3.82	10.9082 11.651 3.45095	
3.83	10.9778 11.7321 3.44392	
3.84	11.0443 11.8211 3.43894	
3.85	11.1229 11.9147 3.4281	
3.86	11.2067 12.0102 3.41906	
3.87	11.3045 12.1025 3.39924	
3.88	11.4036 12.1911 3.38078	
3.89	11.5128 12.2767 3.36877	
3.9	11.6323 12.3574 3.35297	
3.91	11.7641 12.4295 3.33944	
3.92	11.8995 12.4876 3.33124	
3.93	12.0364 12.5348 3.32341	
3.94	12.1667 12.5831 3.31694	
3.95	12.2938 12.6284 3.31278	
3.96	12.4225 12.6736 3.30728	
3.97	12.5453 12.7189 3.30212	
3.98	12.6707 12.7559 3.29	
3.99	12.7848 12.7853 3.28898	
4	12.8948 12.8044 3.27961	
4.01	13.0008 12.8207 3.2786	
4.02	13.105 12.8378 3.27738	
4.03	13.1909 12.8506 3.27224	
4.04	13.2641 12.8615 3.26715	
4.05	13.3249 12.869 3.25813	
4.06	13.3771 12.8759 3.2489	
4.07	13.4169 12.8784 3.23444	
4.08	13.4465 12.8736 3.20819	
4.09	13.4645 12.8686 3.18845	
4.1	13.4756 12.8606 3.16333	
4.11	13.4794 12.8507 3.13682	
4.12	13.4831 12.8364 3.11219	
4.13	13.4802 12.8217 3.09129	
4.14	13.4809 12.7959 3.08571	
4.15	13.4851 12.7512 3.07596	
4.16	13.4906 12.6991 3.07806	
4.17	13.504 12.6446 3.08641	
4.18	13.5072 12.599 3.08932	
4.19	13.5164 12.5601 3.09163	
4.2	13.5194 12.5154 3.09592	
4.21	13.5279 12.4817 3.09731	
4.22	13.5362 12.4448 3.10246	
4.23	13.5435 12.4095 3.11259	
4.24	13.5556 12.364 3.11497	
4.25	13.5667 12.3127 3.12831	
4.26	13.5798 12.2541 3.14034	
4.27	13.592 12.2002 3.15051	
4.28	13.6102 12.1443 3.16428	
4.29	13.6261 12.0803 3.1784	
4.3	13.6413 12.0226 3.19314	
4.31	13.6539 11.9655 3.20798	
4.32	13.6662 11.9135 3.22184	
4.33	13.6776 11.8669 3.23491	
4.34	13.6873 11.8257 3.24673	
4.35	13.6959 11.7942 3.25525	
4.36	13.7043 11.7576 3.26489	
4.37	13.7114 11.7272 3.27454	
4.38	13.7186 11.696 3.28315	
4.39	13.727 11.6595 3.29307	
4.4	13.7332 11.6294 3.30305	
4.41	13.7407 11.5983 3.31204	
4.42	13.748 11.568 3.32221	
4.43	13.7578 11.5263 3.33391	
4.44	13.7673 11.4897 3.34437	
4.45	13.7745 11.4536 3.35484	
4.46	13.7817 11.4226 3.36414	
4.47	13.7901 11.3846 3.36958	
4.48	13.7972 11.3563 3.36876	
4.49	13.8073 11.3181 3.37469	
4.5	13.8132 11.2857 3.37885	
4.51	13.8207 11.2557 3.3899	
4.52	13.8294 11.2211 3.3893	
4.53	13.8362 11.1905 3.39653	
4.54	13.8422 11.1633 3.39974	
4.55	13.849 11.1343 3.39798	
4.56	13.8524 11.1153 3.38926	
4.57	13.8598 11.0939 3.37854	
4.58	13.8555 11.077 3.36593	
4.59	13.859 11.058 3.35724	
4.6	13.8584 11.0362 3.34759	
4.61	13.8563 11.0138 3.33653	
4.62	13.8569 10.9792 3.32329	
4.63	13.8644 10.9444 3.32192	
4.64	13.8668 10.901 3.31698	
4.65	13.8767 10.8566 3.32019	
4.66	13.8893 10.8042 3.31877	
4.67	13.9008 10.7511 3.33046	
4.68	13.9038 10.7028 3.34203	
4.69	13.9142 10.655 3.3525	
4.7	13.9179 10.6048 3.36193	
4.71	13.9213 10.5675 3.37234	
4.72	13.9283 10.5314 3.38108	
4.73	13.9263 10.5099 3.38908	
4.74	13.919 10.484 3.39082	
4.75	13.9162 10.466 3.39203	
4.76	13.9127 10.4447 3.39991	
4.77	13.9111 10.424 3.39473	
4.78	13.9132 10.4096 3.40095	
4.79	13.9104 10.3917 3.40224	
4.8	13.908 10.3686 3.405	
4.81	13.9101 10.3533 3.41008	
4.82	13.9066 10.337 3.41647	
4.83	13.9012 10.3246 3.41588	
4.84	13.8987 10.3072 3.42119	
4.85	13.8944 10.2887 3.42115	
4.86	13.8976 10.274 3.42761	
4.87	13.9001 10.2621 3.42594	
4.88	13.8957 10.2454 3.42836	
4.89	13.8989 10.229 3.43246	
4.9	13.8956 10.2112 3.43381	
4.91	13.8868 10.1866 3.43709	
4.92	13.8835 10.1728 3.43558	
4.93	13.8779 10.1539 3.43146	
4.94	13.8697 10.1269 3.42855	
4.95	13.8688 10.0996 3.42019	
4.96	13.8663 10.0718 3.4252	
4.97	13.8646 10.038 3.43075	
4.98	13.8659 9.99807 3.4346	
4.99	13.8666 9.95733 3.43709	
5	13.8688 9.90754 3.4448	
5.01	13.8732 9.85442 3.46385	
5.02	13.8749 9.80725 3.47829	
5.03	13.8771 9.76056 3.49688	
5.04	13.889 9.7095 3.51383	
5.05	13.8911 9.66385 3.53395	
5.06	13.8856 9.6211 3.54835	
5.07	13.8797 9.57268 3.56347	
5.08	13.8737 9.53073 3.58215	
5.09	13.8737 9.48752 3.59019	
5.1	13.8688 9.43178 3.60142	
5.11	13.8726 9.37203 3.61106	
5.12	13.8687 9.31081 3.62079	
5.13	13.8665 9.24856 3.62998	
5.14	13.8716 9.18895 3.6407	
5.15	13.8604 9.12808 3.65661	
5.16	13.8399 9.07287 3.67287	
5.17	13.8232 9.00883 3.69939	
5.18	13.8044 8.9452 3.72565	
5.19	13.785 8.88234 3.75622	
5.2	13.7578 8.81809 3.78694	
5.21	13.7314 8.74909 3.82038	
5.22	13.6944 8.68211 3.84892	
5.23	13.6637 8.6199 3.88121	
5.24	13.6338 8.55576 3.91159	
5.25	13.5955 8.48755 3.94669	
5.26	13.5661 8.41404 3.98224	
5.27	13.5375 8.34728 4.01856	
5.28	13.5133 8.28364 4.05578	
5.29	13.4842 8.22098 4.08909	
5.3	13.451 8.16967 4.11844	
5.31	13.4167 8.12334 4.14543	
5.32	13.3725 8.08448 4.16604	
5.33	13.3369 8.04232 4.18943	
5.34	13.2846 7.99724 4.20873	
5.35	13.2392 7.95662 4.22323	
5.36	13.1862 7.91612 4.24293	
5.37	13.1329 7.86555 4.2598	
5.38	13.091 7.80455 4.2801	
5.39	13.0417 7.72637 4.29905	
5.4	12.9951 7.64563 4.31255	
5.41	12.9568 7.55048 4.32499	
5.42	12.917 7.463 4.34154	
5.43	12.8872 7.3693 4.35114	
5.44	12.8481 7.28336 4.35456	
5.45	12.8151 7.19738 4.34858	
5.46	12.7809 7.12686 4.33587	
5.47	12.7556 7.06103 4.30371	
5.48	12.7257 7.01097 4.26364	
5.49	12.7058 6.95896 4.21644	
5.5	12.6767 6.91184 4.16734	
5.51	12.6549 6.8619 4.12096	
5.52	12.6256 6.81136 4.07877	
5.53	12.5774 6.77072 4.03708	
5.54	12.5305 6.72737 4.01214	
5.55	12.4654 6.69817 4.0049	
5.56	12.3742 6.67132 4.00279	
5.57	12.2692 6.65818 4.00687	
5.58	12.1507 6.6433 4.01168	
5.59	12.0366 6.63406 4.01155	
5.6	11.9076 6.62361 4.01186	
5.61	11.7851 6.61399 4.01062	
5.62	11.6638 6.60941 4.00671	
5.63	11.5413 6.61137 4.00097	
5.64	11.4356 6.62587 3.98297	
5.65	11.345 6.65004 3.96941	
5.66	11.2734 6.67637 3.95771	
5.67	11.2021 6.70665 3.94594	
5.68	11.1475 6.73572 3.93972	
5.69	11.1099 6.7662 3.9218	
5.7	11.0662 6.79117 3.90307	
5.71	11.0472 6.81661 3.88325	
5.72	11.028 6.84211 3.86338	
5.73	11.0093 6.87331 3.84212	
5.74	11.0063 6.90914 3.81673	
5.75	10.9969 6.94091 3.79992	
5.76	10.9781 6.9682 3.78992	
5.77	10.9523 7.00207 3.78801	
5.78	10.9086 7.04505 3.78038	
5.79	10.8664 7.09586 3.77796	
5.8	10.8138 7.15959 3.76885	
5.81	10.7603 7.22846 3.75308	
5.82	10.7075 7.28306 3.74162	
5.83	10.6539 7.3409 3.72505	
5.84	10.6087 7.39991 3.70579	
5.85	10.546 7.46162 3.67742	
5.86	10.4916 7.51776 3.64671	
5.87	10.4205 7.57414 3.61622	
5.88	10.3419 7.63526 3.57936	
5.89	10.2557 7.68512 3.54558	
5.9	10.1596 7.72841 3.5233	
5.91	10.0426 7.77687 3.50293	
5.92	9.93281 7.82507 3.47747	
5.93	9.8157 7.88082 3.452	
5.94	9.69157 7.94554 3.41961	
5.95	9.57401 8.0122 3.38839	
5.96	9.44845 8.08426 3.354	
5.97	9.33847 8.1606 3.33189	
5.98	9.23022 8.23873 3.31539	
5.99	9.12138 8.31245 3.29753	
6	9.01395 8.37972 3.27999	
6.01	8.91579 8.44779 3.2602	
6.02	8.81352 8.52282 3.24371	
6.03	8.71212 8.59583 3.21717	
6.04	8.61117 8.67948 3.18263	
6.05	8.51943 8.76116 3.14618	
6.06	8.43198 8.84901 3.10938	
6.07	8.34941 8.93636 3.07173	
6.08	8.25986 9.01432 3.03483	
6.09	8.16928 9.07703 3.00729	
6.1	8.07683 9.1234 2.98051	
6.11	7.98215 9.15731 2.9664	
6.12	7.89483 9.18612 2.95155	
6.13	7.80729 9.21436 2.93548	
6.14	7.73998 9.22718 2.91288	
6.15	7.67182 9.23084 2.89555	
6.16	7.62115 9.23107 2.87308	
6.17	7.57523 9.23136 2.8478	
6.18	7.54137 9.22555 2.8095	
6.19	7.51228 9.20935 2.7723	
6.2	7.48502 9.19647 2.73075	
6.21	7.46453 9.17695 2.68302	
6.22	7.45131 9.14649 2.64334	
6.23	7.44482 9.11125 2.61095	
6.24	7.43877 9.07082 2.58048	
6.25	7.4342 9.03039 2.55003	
6.26	7.42649 8.98656 2.52712	
6.27	7.42057 8.94501 2.5149	
6.28	7.41233 8.89956 2.51183	
6.29	7.40611 8.85595 2.51655	
6.3	7.398 8.78843 2.53314	
6.31	7.39208 8.73626 2.54399	
6.32	7.39232 8.69449 2.55216	
6.33	7.39331 8.64555 2.55642	
6.34	7.40573 8.60422 2.55113	
6.35	7.42127 8.55732 2.54431	
6.36	7.43342 8.51517 2.53814	
6.37	7.4421 8.46443 2.53796	
6.38	7.43887 8.42166 2.545	
6.39	7.44253 8.38124 2.56412	
6.4	7.44432 8.34617 2.57703	
6.41	7.44791 8.3049 2.59528	
6.42	7.44956 8.25984 2.61714	
6.43	7.45922 8.21573 2.6414	
6.44	7.47028 8.1685 2.65414	
6.45	7.48264 8.11293 2.66159	
6.46	7.4949 8.06461 2.66922	
6.47	7.50615 8.01958 2.67237	
6.48	7.51084 7.97249 2.68029	
6.49	7.51293 7.93701 2.68896	
6.5	7.5177 7.89016 2.70138	
6.51	7.52221 7.8524 2.70369	
6.52	7.52071 7.82047 2.71197	
6.53	7.52422 7.79507 2.71603	
6.54	7.53166 7.76814 2.72315	
6.55	7.53058 7.74835 2.73316	
6.56	7.53592 7.72773 2.73896	
6.57	7.53535 7.71184 2.74118	
6.58	7.53299 7.69328 2.75237	
6.59	7.53821 7.67172 2.75716	
6.6	7.54429 7.64511 2.76452	
6.61	7.5412 7.62072 2.77303	
6.62	7.54876 7.59592 2.78683	
6.63	7.54244 7.56718 2.79811	
6.64	7.54957 7.53665 2.81361	
6.65	7.54589 7.50754 2.82493	
6.66	7.55102 7.47244 2.83893	
6.67	7.54747 7.43257 2.8503	
6.68	7.55354 7.39258 2.8629	
6.69	7.54991 7.35188 2.86917	
6.7	7.54468 7.30969 2.88148	
6.71	7.54163 7.26142 2.89556	
6.72	7.53759 7.21727 2.90602	
6.73	7.53411 7.16624 2.9172	
