# Gnuplot File : positions of 1 particle(s) Monitored
# 1st Column : time, others : particle(s) number 0 
0.01	7.65826 14.2119 1.79535	
0.02	7.61059 14.1725 1.88416	
0.03	7.62834 14.1547 1.88616	
0.04	7.56962 14.1932 1.96048	
0.05	7.49392 14.2416 2.07148	
0.06	7.42342 14.2921 2.23896	
0.07	7.42167 14.2805 2.24433	
0.08	7.4489 14.2616 2.1942	
0.09	7.61548 14.1526 1.94694	
0.1	7.72673 14.0953 1.80727	
0.11	7.78145 14.0684 1.74421	
0.12	7.94666 13.999 1.60146	
0.13	8.13757 13.9346 1.43439	
0.14	8.28686 13.8769 1.32704	
0.15	8.42465 13.8572 1.22816	
0.16	8.5237 13.1102 1.5021	
0.17	8.59873 12.3243 1.96574	
0.18	8.90231 10.5711 2.99941	
0.19	9.18604 9.96856 3.32254	
0.2	9.57571 9.52076 3.97015	
0.21	9.88968 9.46349 5.1643	
0.22	10.1543 9.58236 6.45442	
0.23	10.5104 9.73448 7.04846	
0.24	10.8086 9.75514 7.01162	
0.25	11.0388 9.79087 7.01644	
0.26	11.2709 9.90665 7.09769	
0.27	11.5145 9.99512 7.18382	
0.28	11.8642 10.0769 7.26439	
0.29	12.3451 10.1331 7.35684	
0.3	12.5647 10.0587 7.41575	
0.31	12.7251 9.8856 7.38555	
0.32	12.8316 9.59346 7.19073	
0.33	12.8895 9.32541 6.95199	
0.34	12.9243 9.16957 6.80047	
0.35	12.9396 9.03801 6.67746	
0.36	12.9574 8.81723 6.44849	
0.37	12.9735 8.64291 6.23841	
0.38	12.9794 8.56356 6.03229	
0.39	12.983 8.54012 5.83374	
0.4	12.9864 8.49534 5.59353	
0.41	12.9915 8.49607 5.38995	
0.42	12.9889 8.56694 5.30239	
0.43	12.9854 8.657 5.20585	
0.44	12.9852 8.71709 5.09095	
0.45	12.9879 8.74138 4.97413	
0.46	12.9841 8.75586 4.89181	
0.47	12.9844 8.78151 4.79271	
0.48	12.9881 8.78339 4.71204	
0.49	13.0034 8.78839 4.65064	
0.5	13.0192 8.78868 4.54395	
0.51	13.0313 8.80736 4.44096	
0.52	13.049 8.77735 4.35503	
0.53	13.058 8.72177 4.25732	
0.54	13.0644 8.66467 4.12528	
0.55	13.0687 8.60337 3.93813	
0.56	13.0753 8.5029 3.73092	
0.57	13.0793 8.45018 3.51891	
0.58	13.0855 8.35835 3.33963	
0.59	13.0784 8.39308 3.26428	
0.6	13.0763 8.43558 3.23573	
0.61	13.0556 8.49115 3.19928	
0.62	13.0507 8.58439 3.13672	
0.63	13.0361 8.6806 3.02992	
0.64	13.0294 8.80591 2.94936	
0.65	13.0233 8.91523 2.90933	
0.66	13.0169 9.02832 2.89109	
0.67	13.0096 9.16201 2.86077	
0.68	13.0018 9.2883 2.82205	
0.69	12.9925 9.4525 2.79686	
0.7	12.9851 9.57639 2.76171	
0.71	12.98 9.64942 2.70082	
0.72	12.9771 9.6748 2.58248	
0.73	12.9758 9.67839 2.42071	
0.74	12.9719 9.73236 2.32819	
0.75	12.9919 9.78304 2.33696	
0.76	13.014 9.83813 2.37775	
0.77	13.0167 9.90358 2.32748	
0.78	13.0492 9.9726 2.33935	
0.79	13.0512 10.0674 2.31635	
0.8	13.059 10.1253 2.29475	
0.81	13.0596 10.1745 2.252	
0.82	13.065 10.2022 2.20861	
0.83	13.0603 10.2029 2.10061	
0.84	13.075 10.1531 1.95698	
0.85	13.0695 10.1046 1.78053	
0.86	13.0665 10.2508 1.40551	
0.87	13.0522 9.7919 1.06071	
0.88	12.9367 9.97118 1.0212	
0.89	12.8902 9.95876 0.913277	
0.9	12.7655 9.94125 0.732339	
0.91	12.7018 9.91486 0.639873	
0.92	12.5902 9.89191 0.508896	
0.93	12.5466 9.88712 0.350799	
0.94	12.5902 9.89608 0.274966	
0.95	12.7985 9.92105 0.212949	
0.96	12.8688 10.0145 0.0718636	
0.97	12.8406 9.92915 0.0709969	
0.98	12.7342 9.90895 0.00772473	
0.99	12.6696 9.84535 -0.200033	
1	12.474 9.83689 -0.496	
1.01	12.4712 9.69965 -0.685709	
1.02	12.1841 9.76883 -0.776178	
1.03	12.0292 9.66843 -0.866689	
1.04	11.8343 9.62652 -0.888202	
1.05	11.6815 9.49953 -0.907446	
1.06	11.5188 9.4884 -0.932931	
1.07	11.4314 9.4699 -0.968089	
1.08	11.2759 9.4872 -0.974135	
1.09	11.132 9.44016 -1.03322	
1.1	10.8863 9.44821 -0.979005	
1.11	10.6218 9.36854 -1.01291	
1.12	10.3453 9.29964 -0.964749	
1.13	10.0641 9.23764 -1.04063	
1.14	9.65821 9.18955 -0.939363	
1.15	9.35561 9.05952 -1.04916	
1.16	9.03463 8.97318 -1.14239	
1.17	8.78264 8.93781 -1.18829	
1.18	8.57056 8.93786 -1.14202	
1.19	8.45237 8.95783 -1.03693	
1.2	8.3484 9.00419 -0.93281	
1.21	8.26471 9.05919 -0.829904	
1.22	8.15943 9.12575 -0.733687	
1.23	8.09279 9.16553 -0.624289	
1.24	8.02018 9.2113 -0.485723	
1.25	7.95227 9.25219 -0.340478	
1.26	7.90341 9.29406 -0.190158	
1.27	7.84718 9.32194 -0.214098	
1.28	7.73075 9.31795 -0.162774	
1.29	7.60623 9.30803 -0.0539562	
1.3	7.47974 9.28262 0.058797	
1.31	7.85546 8.80608 -0.658269	
1.32	7.65545 8.86171 -0.573817	
1.33	7.66884 8.93568 -0.402559	
1.34	7.62627 9.00198 -0.203476	
1.35	7.58547 9.08413 0.086717	
1.36	7.56062 9.19266 0.469711	
1.37	7.93497 9.63656 2.00049	
1.38	8.35022 9.07908 4.12162	
1.39	9.2196 9.55307 4.78405	
1.4	8.55184 9.50235 5.64939	
1.41	9.01258 9.56142 6.15134	
1.42	8.78462 9.66337 8.22214	
1.43	8.59408 9.46271 10.6295	
1.44	8.58137 9.1404 11.4258	
1.45	8.43191 8.91271 11.3428	
1.46	8.28804 8.69962 11.0887	
1.47	8.13226 8.47227 10.8729	
1.48	7.96909 8.18922 10.8029	
1.49	7.80471 7.79272 10.6703	
1.5	7.7618 7.3532 10.5269	
1.51	7.74268 6.83908 10.3822	
1.52	7.79535 6.38848 10.1553	
1.53	7.76018 6.0704 9.74549	
1.54	7.74548 5.83892 9.36635	
1.55	7.8499 5.65372 8.96092	
1.56	8.0428 5.45155 8.59468	
1.57	8.38732 5.22485 8.29736	
1.58	8.85343 5.11413 8.13003	
1.59	9.3845 5.03791 7.94692	
1.6	9.92472 4.91063 7.95789	
1.61	10.3669 4.69243 8.13533	
1.62	10.7261 4.36081 8.44442	
1.63	11.0161 4.02277 8.79812	
1.64	11.2597 3.71576 9.01978	
1.65	11.422 3.41439 8.99373	
1.66	11.547 3.14371 8.85771	
1.67	11.6693 2.93167 8.70248	
1.68	11.7544 2.7676 8.57624	
1.69	11.7734 2.68907 8.59317	
1.7	11.7875 2.67544 8.61426	
1.71	11.7837 2.65607 8.63545	
1.72	11.7799 2.65534 8.6363	
1.73	11.7766 2.6184 8.67228	
1.74	11.79 2.49438 8.78221	
1.75	11.7977 2.39178 8.89519	
1.76	11.7942 2.31663 8.99193	
1.77	11.7914 2.24347 9.07122	
1.78	11.7889 2.20662 9.09619	
1.79	11.7897 2.19955 9.09037	
1.8	11.7913 2.09334 9.00294	
1.81	11.7157 1.90287 8.85845	
1.82	11.7489 1.64829 8.60372	
1.83	11.7392 1.30661 8.41795	
1.84	11.7547 0.977616 8.30963	
1.85	11.6907 0.727736 8.12978	
1.86	11.6301 0.671204 7.95496	
1.87	11.5464 0.807108 7.78686	
1.88	11.2868 0.944716 7.62405	
1.89	10.9734 1.00871 7.52237	
1.9	10.8676 1.04386 7.34464	
1.91	10.853 1.12263 7.22201	
1.92	10.8655 1.18591 7.06709	
1.93	10.887 1.22203 6.95053	
1.94	10.9319 1.23768 6.87971	
1.95	11.0071 1.21596 6.83778	
1.96	11.0685 1.17322 6.77265	
1.97	11.1202 1.09511 6.6663	
1.98	11.1952 1.03036 6.55406	
1.99	11.2641 0.984286 6.49189	
2	11.2794 0.96727 6.47475	
2.01	11.2823 0.945435 6.4315	
2.02	11.3099 0.903601 6.34226	
2.03	11.3195 0.870139 6.27264	
2.04	11.3324 0.842148 6.19171	
2.05	11.3574 0.825355 6.04995	
2.06	11.4041 0.817393 5.85681	
2.07	11.4535 0.838685 5.73812	
2.08	11.4765 0.91445 5.64647	
2.09	11.4939 1.0149 5.54702	
2.1	11.5038 1.09464 5.4673	
2.11	11.5121 1.17565 5.38339	
2.12	11.5257 1.2642 5.30417	
2.13	11.5361 1.35768 5.22001	
2.14	11.5517 1.46306 5.12522	
2.15	11.5664 1.5699 5.02348	
2.16	11.584 1.69863 4.91109	
2.17	11.6031 1.82352 4.80302	
2.18	11.6181 1.92477 4.72974	
2.19	11.6311 2.01759 4.65823	
2.2	11.6608 2.10961 4.58472	
2.21	11.6752 2.19143 4.52294	
2.22	11.7187 2.28527 4.45173	
2.23	11.7863 2.38977 4.37091	
2.24	12.1516 2.49101 4.31385	
2.25	12.6115 2.56668 4.23442	
2.26	12.7013 2.60186 4.18549	
2.27	12.7052 2.60627 4.17089	
2.28	12.6993 2.6269 4.14677	
2.29	12.6858 2.66389 4.1193	
2.3	12.6686 2.68097 4.1011	
2.31	12.6544 2.69874 4.06164	
2.32	12.6545 2.73375 3.98523	
2.33	12.6555 2.78292 3.8562	
2.34	12.657 2.81489 3.67642	
2.35	12.6493 2.83331 3.49429	
2.36	12.6517 2.86997 3.32404	
2.37	12.6369 2.9143 3.19593	
2.38	12.6311 2.94781 3.06675	
2.39	12.6262 3.02145 2.91501	
2.4	12.6219 3.12239 2.80857	
2.41	12.6197 3.22758 2.73921	
2.42	12.6236 3.3105 2.6875	
2.43	12.6278 3.40698 2.62402	
2.44	12.6377 3.52576 2.55716	
2.45	12.6514 3.62317 2.49738	
2.46	12.7715 3.73382 2.43711	
2.47	12.9776 3.79078 2.39654	
2.48	13.2145 3.83215 2.47438	
2.49	13.2578 3.87436 2.42061	
2.5	13.2936 3.91885 2.47984	
2.51	13.2902 3.95672 2.40259	
2.52	13.3215 3.95708 2.45229	
2.53	13.3269 3.95612 2.35898	
2.54	13.3427 3.92983 2.32209	
2.55	13.3309 3.90371 2.20557	
2.56	13.3062 3.93175 2.08923	
2.57	13.3079 3.98056 1.79726	
2.58	13.2974 4.01021 1.49026	
2.59	13.1338 4.00426 1.20628	
2.6	13.0877 4.04031 1.05155	
2.61	12.9902 4.06637 0.892734	
2.62	12.928 4.06438 0.444434	
2.63	12.7972 4.07359 -0.0611325	
2.64	12.828 4.25093 -0.419307	
2.65	11.6274 4.47533 -0.869262	
2.66	10.5309 4.40785 -0.66108	
2.67	11.4242 4.46548 -0.554725	
2.68	10.3939 4.42608 -0.576039	
2.69	11.4618 4.60354 -0.534484	
2.7	10.1663 4.55034 -0.588048	
2.71	11.1463 4.95972 -0.423876	
2.72	9.455 4.8959 -0.449519	
2.73	10.6109 5.2311 -0.401981	
2.74	8.62713 4.98199 -0.623015	
2.75	8.63255 4.88254 -1.22228	
2.76	8.52761 4.84425 -1.15542	
2.77	8.28424 4.86091 -1.26981	
2.78	7.84585 4.85972 -1.28676	
2.79	7.44423 4.84172 -1.17164	
2.8	7.33764 4.95674 -0.784288	
2.81	7.27974 5.02304 -0.534683	
2.82	7.51856 5.04733 -0.288628	
2.83	7.65218 4.92483 -0.46168	
2.84	7.53488 4.79023 -0.506557	
2.85	7.49071 4.70354 -0.428519	
2.86	7.21558 4.71973 -0.373114	
2.87	7.42516 4.56481 -0.434274	
2.88	7.5228 3.93332 -0.954754	
2.89	7.63765 4.20488 -0.530137	
2.9	7.3456 4.31093 -0.059726	
2.91	7.35284 4.42965 0.449085	
2.92	7.4019 4.45023 1.66358	
2.93	7.79389 5.25253 2.66757	
2.94	7.86683 5.16277 3.30134	
2.95	7.85924 5.1171 3.57992	
2.96	7.47497 5.28855 4.28245	
2.97	7.36102 6.13853 4.30222	
2.98	7.1399 6.0633 5.38642	
2.99	7.18487 6.57561 6.93852	
3	7.04915 7.00399 6.65043	
3.01	6.77561 7.49789 6.03755	
3.02	6.69254 8.05737 5.37676	
3.03	6.73224 8.67092 4.45121	
3.04	6.86016 9.30238 3.79029	
3.05	7.03915 9.83907 3.38248	
3.06	7.26804 10.3972 3.01214	
3.07	7.40807 10.9549 2.62489	
3.08	7.59444 11.5146 2.20777	
3.09	7.78589 12.2227 1.86305	
3.1	8.0382 13.0679 1.75896	
3.11	8.02466 14.0644 1.71467	
3.12	7.82648 14.2828 1.67495	
3.13	7.93061 14.2186 1.57143	
3.14	8.13528 14.0483 1.40206	
3.15	8.31454 13.995 1.26405	
3.16	8.42864 13.9453 1.19584	
3.17	8.44792 13.948 1.17903	
3.18	8.33082 13.9851 1.24755	
3.19	8.28263 13.9989 1.27751	
3.2	8.24021 14.0139 1.30391	
3.21	8.22395 14.0232 1.31173	
3.22	8.21731 14.0249 1.31446	
3.23	8.21397 14.031 1.31299	
3.24	8.21417 14.0271 1.31217	
3.25	8.20772 14.029 1.31495	
3.26	8.20908 14.0264 1.31284	
3.27	8.20757 14.025 1.3128	
3.28	8.20612 14.0236 1.31275	
3.29	8.20383 14.0238 1.31291	
3.3	8.20351 14.0209 1.31284	
3.31	8.2026 14.0193 1.31338	
3.32	8.20206 14.0175 1.31452	
3.33	8.20017 14.0148 1.31635	
3.34	8.20608 13.9967 1.31827	
